UNIX Timestamp,ECG,HR,RR,Marker,datetime_utc,datetime_local,elapsed_seconds
1776408532484082266,0.152,75.0,,,2026-04-17 06:48:52.484082 UTC,2026-04-17 06:48:52.484082,0.0
1776408532491774056,0.309,,,,2026-04-17 06:48:52.491774 UTC,2026-04-17 06:48:52.491774,0.00769179
1776408532499465846,0.213,,,,2026-04-17 06:48:52.499465 UTC,2026-04-17 06:48:52.499465,0.01538358
1776408532507157636,0.238,,,,2026-04-17 06:48:52.507157 UTC,2026-04-17 06:48:52.507157,0.02307537
1776408532514849426,0.296,,,,2026-04-17 06:48:52.514849 UTC,2026-04-17 06:48:52.514849,0.03076716
1776408532522541216,0.255,,,,2026-04-17 06:48:52.522541 UTC,2026-04-17 06:48:52.522541,0.03845895
1776408532530233006,0.247,,,,2026-04-17 06:48:52.530233 UTC,2026-04-17 06:48:52.530233,0.04615074
1776408532537924796,0.277,,,,2026-04-17 06:48:52.537924 UTC,2026-04-17 06:48:52.537924,0.05384253
1776408532545616586,0.287,,,,2026-04-17 06:48:52.545616 UTC,2026-04-17 06:48:52.545616,0.06153432
1776408532553308376,0.294,,,,2026-04-17 06:48:52.553308 UTC,2026-04-17 06:48:52.553308,0.06922611
1776408532561000166,0.296,,,,2026-04-17 06:48:52.561000 UTC,2026-04-17 06:48:52.561000,0.0769179
1776408532568691956,0.289,,,,2026-04-17 06:48:52.568691 UTC,2026-04-17 06:48:52.568691,0.08460969
1776408532576383746,0.301,,,,2026-04-17 06:48:52.576383 UTC,2026-04-17 06:48:52.576383,0.09230148
1776408532584075536,0.321,,,,2026-04-17 06:48:52.584075 UTC,2026-04-17 06:48:52.584075,0.09999327
1776408532591767326,0.336,,,,2026-04-17 06:48:52.591767 UTC,2026-04-17 06:48:52.591767,0.10768506
1776408532599459116,0.336,,,,2026-04-17 06:48:52.599459 UTC,2026-04-17 06:48:52.599459,0.11537685
1776408532607150906,0.341,,,,2026-04-17 06:48:52.607150 UTC,2026-04-17 06:48:52.607150,0.12306864
1776408532614842696,0.358,,,,2026-04-17 06:48:52.614842 UTC,2026-04-17 06:48:52.614842,0.13076043
1776408532622534486,0.382,,,,2026-04-17 06:48:52.622534 UTC,2026-04-17 06:48:52.622534,0.13845222
1776408532630226276,0.399,,,,2026-04-17 06:48:52.630226 UTC,2026-04-17 06:48:52.630226,0.14614401
1776408532637918066,0.399,,,,2026-04-17 06:48:52.637918 UTC,2026-04-17 06:48:52.637918,0.1538358
1776408532645609856,0.399,,,,2026-04-17 06:48:52.645609 UTC,2026-04-17 06:48:52.645609,0.16152759
1776408532653301646,0.392,,,,2026-04-17 06:48:52.653301 UTC,2026-04-17 06:48:52.653301,0.16921938
1776408532660993436,0.358,,,,2026-04-17 06:48:52.660993 UTC,2026-04-17 06:48:52.660993,0.17691117
1776408532668685226,0.331,,,,2026-04-17 06:48:52.668685 UTC,2026-04-17 06:48:52.668685,0.18460296
1776408532676377016,0.306,,,,2026-04-17 06:48:52.676377 UTC,2026-04-17 06:48:52.676377,0.19229475
1776408532684068806,0.264,,,,2026-04-17 06:48:52.684068 UTC,2026-04-17 06:48:52.684068,0.19998654
1776408532691760596,0.223,,,,2026-04-17 06:48:52.691760 UTC,2026-04-17 06:48:52.691760,0.20767833
1776408532699452386,0.179,,,,2026-04-17 06:48:52.699452 UTC,2026-04-17 06:48:52.699452,0.21537012
1776408532707144176,0.122,,,,2026-04-17 06:48:52.707144 UTC,2026-04-17 06:48:52.707144,0.22306191
1776408532714835966,0.085,,,,2026-04-17 06:48:52.714835 UTC,2026-04-17 06:48:52.714835,0.2307537
1776408532722527756,0.063,,,,2026-04-17 06:48:52.722527 UTC,2026-04-17 06:48:52.722527,0.23844549
1776408532730219546,0.036,,,,2026-04-17 06:48:52.730219 UTC,2026-04-17 06:48:52.730219,0.24613728
1776408532737911336,-0.002,,,,2026-04-17 06:48:52.737911 UTC,2026-04-17 06:48:52.737911,0.25382907
1776408532745603126,-0.019,,,,2026-04-17 06:48:52.745603 UTC,2026-04-17 06:48:52.745603,0.26152086
1776408532753294916,-0.004,,,,2026-04-17 06:48:52.753294 UTC,2026-04-17 06:48:52.753294,0.26921265
1776408532760986706,0.0,,,,2026-04-17 06:48:52.760986 UTC,2026-04-17 06:48:52.760986,0.27690444
1776408532768678496,-0.014,,,,2026-04-17 06:48:52.768678 UTC,2026-04-17 06:48:52.768678,0.28459623
1776408532776370286,-0.022,,,,2026-04-17 06:48:52.776370 UTC,2026-04-17 06:48:52.776370,0.29228802
1776408532784062076,-0.022,,,,2026-04-17 06:48:52.784062 UTC,2026-04-17 06:48:52.784062,0.29997981
1776408532791753866,-0.022,,,,2026-04-17 06:48:52.791753 UTC,2026-04-17 06:48:52.791753,0.3076716
1776408532799445656,-0.017,,,,2026-04-17 06:48:52.799445 UTC,2026-04-17 06:48:52.799445,0.31536339
1776408532807137446,-0.009,,,,2026-04-17 06:48:52.807137 UTC,2026-04-17 06:48:52.807137,0.32305518
1776408532814829236,0.0,,,,2026-04-17 06:48:52.814829 UTC,2026-04-17 06:48:52.814829,0.33074697
1776408532822521026,0.012,,,,2026-04-17 06:48:52.822521 UTC,2026-04-17 06:48:52.822521,0.33843876
1776408532830212816,0.019,,,,2026-04-17 06:48:52.830212 UTC,2026-04-17 06:48:52.830212,0.34613055
1776408532837904606,0.014,,,,2026-04-17 06:48:52.837904 UTC,2026-04-17 06:48:52.837904,0.35382234
1776408532845596396,0.017,,,,2026-04-17 06:48:52.845596 UTC,2026-04-17 06:48:52.845596,0.36151413
1776408532853288186,0.022,,,,2026-04-17 06:48:52.853288 UTC,2026-04-17 06:48:52.853288,0.36920592
1776408532860979976,0.022,,,,2026-04-17 06:48:52.860979 UTC,2026-04-17 06:48:52.860979,0.37689771
1776408532868671766,0.022,,,,2026-04-17 06:48:52.868671 UTC,2026-04-17 06:48:52.868671,0.3845895
1776408532876363556,0.017,,,,2026-04-17 06:48:52.876363 UTC,2026-04-17 06:48:52.876363,0.39228129
1776408532884055346,0.0,,,,2026-04-17 06:48:52.884055 UTC,2026-04-17 06:48:52.884055,0.39997308
1776408532891747136,-0.002,,,,2026-04-17 06:48:52.891747 UTC,2026-04-17 06:48:52.891747,0.40766487
1776408532899438926,0.004,,,,2026-04-17 06:48:52.899438 UTC,2026-04-17 06:48:52.899438,0.41535666
1776408532907130716,0.004,,,,2026-04-17 06:48:52.907130 UTC,2026-04-17 06:48:52.907130,0.42304845
1776408532914822506,0.0,,,,2026-04-17 06:48:52.914822 UTC,2026-04-17 06:48:52.914822,0.43074024
1776408532922514296,0.002,,,,2026-04-17 06:48:52.922514 UTC,2026-04-17 06:48:52.922514,0.43843203
1776408532930206086,0.009,,,,2026-04-17 06:48:52.930206 UTC,2026-04-17 06:48:52.930206,0.44612382
1776408532937897876,0.002,,,,2026-04-17 06:48:52.937897 UTC,2026-04-17 06:48:52.937897,0.45381561
1776408532945589666,-0.004,,,,2026-04-17 06:48:52.945589 UTC,2026-04-17 06:48:52.945589,0.4615074
1776408532953281456,0.0,,,,2026-04-17 06:48:52.953281 UTC,2026-04-17 06:48:52.953281,0.46919919
1776408532960973246,0.007,,,,2026-04-17 06:48:52.960973 UTC,2026-04-17 06:48:52.960973,0.47689098
1776408532968665036,0.017,,,,2026-04-17 06:48:52.968665 UTC,2026-04-17 06:48:52.968665,0.48458277
1776408532976356826,0.019,,,,2026-04-17 06:48:52.976356 UTC,2026-04-17 06:48:52.976356,0.49227456
1776408532984048616,0.019,,,,2026-04-17 06:48:52.984048 UTC,2026-04-17 06:48:52.984048,0.49996635
1776408532991740406,0.022,,,,2026-04-17 06:48:52.991740 UTC,2026-04-17 06:48:52.991740,0.50765814
1776408532999432196,0.026,,,,2026-04-17 06:48:52.999432 UTC,2026-04-17 06:48:52.999432,0.51534993
1776408533007123986,0.022,,,,2026-04-17 06:48:53.007123 UTC,2026-04-17 06:48:53.007123,0.52304172
1776408533014815776,0.002,,,,2026-04-17 06:48:53.014815 UTC,2026-04-17 06:48:53.014815,0.53073351
1776408533022507566,0.002,,777.0,,2026-04-17 06:48:53.022507 UTC,2026-04-17 06:48:53.022507,0.5384253
1776408533030199356,0.041,,,,2026-04-17 06:48:53.030199 UTC,2026-04-17 06:48:53.030199,0.54611709
1776408533037891146,0.066,,,,2026-04-17 06:48:53.037891 UTC,2026-04-17 06:48:53.037891,0.55380888
1776408533045582948,0.049,,,,2026-04-17 06:48:53.045582 UTC,2026-04-17 06:48:53.045582,0.561500682
1776408533053274807,0.034,,,,2026-04-17 06:48:53.053274 UTC,2026-04-17 06:48:53.053274,0.569192541
1776408533060966666,0.039,,,,2026-04-17 06:48:53.060966 UTC,2026-04-17 06:48:53.060966,0.5768844
1776408533068658525,0.061,,,,2026-04-17 06:48:53.068658 UTC,2026-04-17 06:48:53.068658,0.584576259
1776408533076350384,0.093,,,,2026-04-17 06:48:53.076350 UTC,2026-04-17 06:48:53.076350,0.592268118
1776408533084042243,0.103,,,,2026-04-17 06:48:53.084042 UTC,2026-04-17 06:48:53.084042,0.599959977
1776408533091734102,0.098,,,,2026-04-17 06:48:53.091734 UTC,2026-04-17 06:48:53.091734,0.607651836
1776408533099425961,0.098,,,,2026-04-17 06:48:53.099425 UTC,2026-04-17 06:48:53.099425,0.615343695
1776408533107117820,0.078,,,,2026-04-17 06:48:53.107117 UTC,2026-04-17 06:48:53.107117,0.623035554
1776408533114809679,0.039,,,,2026-04-17 06:48:53.114809 UTC,2026-04-17 06:48:53.114809,0.630727413
1776408533122501538,0.029,,,,2026-04-17 06:48:53.122501 UTC,2026-04-17 06:48:53.122501,0.638419272
1776408533130193397,0.044,,,,2026-04-17 06:48:53.130193 UTC,2026-04-17 06:48:53.130193,0.646111131
1776408533137885256,0.049,,,,2026-04-17 06:48:53.137885 UTC,2026-04-17 06:48:53.137885,0.65380299
1776408533145577115,0.051,,,,2026-04-17 06:48:53.145577 UTC,2026-04-17 06:48:53.145577,0.661494849
1776408533153268974,0.056,,,,2026-04-17 06:48:53.153268 UTC,2026-04-17 06:48:53.153268,0.669186708
1776408533160960833,0.058,,,,2026-04-17 06:48:53.160960 UTC,2026-04-17 06:48:53.160960,0.676878567
1776408533168652692,0.056,,,,2026-04-17 06:48:53.168652 UTC,2026-04-17 06:48:53.168652,0.684570426
1776408533176344551,0.149,,,,2026-04-17 06:48:53.176344 UTC,2026-04-17 06:48:53.176344,0.692262285
1776408533184036410,0.5690000000000001,,,,2026-04-17 06:48:53.184036 UTC,2026-04-17 06:48:53.184036,0.699954144
1776408533191728269,1.288,,,,2026-04-17 06:48:53.191728 UTC,2026-04-17 06:48:53.191728,0.707646003
1776408533199420128,1.418,,,,2026-04-17 06:48:53.199420 UTC,2026-04-17 06:48:53.199420,0.715337862
1776408533207111987,0.058,,,,2026-04-17 06:48:53.207111 UTC,2026-04-17 06:48:53.207111,0.723029721
1776408533214803846,-1.599,,,,2026-04-17 06:48:53.214803 UTC,2026-04-17 06:48:53.214803,0.73072158
1776408533222495705,-1.621,,,,2026-04-17 06:48:53.222495 UTC,2026-04-17 06:48:53.222495,0.738413439
1776408533230187564,-0.6990000000000001,,,,2026-04-17 06:48:53.230187 UTC,2026-04-17 06:48:53.230187,0.746105298
1776408533237879423,-0.309,,,,2026-04-17 06:48:53.237879 UTC,2026-04-17 06:48:53.237879,0.753797157
1776408533245571282,-0.09,,,,2026-04-17 06:48:53.245571 UTC,2026-04-17 06:48:53.245571,0.761489016
1776408533253263141,0.233,,,,2026-04-17 06:48:53.253263 UTC,2026-04-17 06:48:53.253263,0.769180875
1776408533260955000,0.264,,,,2026-04-17 06:48:53.260955 UTC,2026-04-17 06:48:53.260955,0.776872734
1776408533268646859,0.193,,,,2026-04-17 06:48:53.268646 UTC,2026-04-17 06:48:53.268646,0.784564593
1776408533276338718,0.255,,,,2026-04-17 06:48:53.276338 UTC,2026-04-17 06:48:53.276338,0.792256452
1776408533284030577,0.269,,,,2026-04-17 06:48:53.284030 UTC,2026-04-17 06:48:53.284030,0.799948311
1776408533291722436,0.223,,,,2026-04-17 06:48:53.291722 UTC,2026-04-17 06:48:53.291722,0.80764017
1776408533299414295,0.24,,,,2026-04-17 06:48:53.299414 UTC,2026-04-17 06:48:53.299414,0.815332029
1776408533307106154,0.272,,,,2026-04-17 06:48:53.307106 UTC,2026-04-17 06:48:53.307106,0.823023888
1776408533314798013,0.269,,,,2026-04-17 06:48:53.314798 UTC,2026-04-17 06:48:53.314798,0.830715747
1776408533322489872,0.267,,,,2026-04-17 06:48:53.322489 UTC,2026-04-17 06:48:53.322489,0.838407606
1776408533330181731,0.284,,,,2026-04-17 06:48:53.330181 UTC,2026-04-17 06:48:53.330181,0.846099465
1776408533337873590,0.296,,,,2026-04-17 06:48:53.337873 UTC,2026-04-17 06:48:53.337873,0.853791324
1776408533345565449,0.296,,,,2026-04-17 06:48:53.345565 UTC,2026-04-17 06:48:53.345565,0.861483183
1776408533353257308,0.309,,,,2026-04-17 06:48:53.353257 UTC,2026-04-17 06:48:53.353257,0.869175042
1776408533360949167,0.323,,,,2026-04-17 06:48:53.360949 UTC,2026-04-17 06:48:53.360949,0.876866901
1776408533368641026,0.333,,,,2026-04-17 06:48:53.368641 UTC,2026-04-17 06:48:53.368641,0.88455876
1776408533376332885,0.345,,,,2026-04-17 06:48:53.376332 UTC,2026-04-17 06:48:53.376332,0.892250619
1776408533384024744,0.365,,,,2026-04-17 06:48:53.384024 UTC,2026-04-17 06:48:53.384024,0.899942478
1776408533391716603,0.377,,,,2026-04-17 06:48:53.391716 UTC,2026-04-17 06:48:53.391716,0.907634337
1776408533399408462,0.377,,,,2026-04-17 06:48:53.399408 UTC,2026-04-17 06:48:53.399408,0.915326196
1776408533407100321,0.375,,,,2026-04-17 06:48:53.407100 UTC,2026-04-17 06:48:53.407100,0.923018055
1776408533414792180,0.385,,,,2026-04-17 06:48:53.414792 UTC,2026-04-17 06:48:53.414792,0.930709914
1776408533422484039,0.382,,,,2026-04-17 06:48:53.422484 UTC,2026-04-17 06:48:53.422484,0.938401773
1776408533430175898,0.355,,,,2026-04-17 06:48:53.430175 UTC,2026-04-17 06:48:53.430175,0.946093632
1776408533437867757,0.321,,,,2026-04-17 06:48:53.437867 UTC,2026-04-17 06:48:53.437867,0.953785491
1776408533445559616,0.296,,,,2026-04-17 06:48:53.445559 UTC,2026-04-17 06:48:53.445559,0.96147735
1776408533453251475,0.264,,,,2026-04-17 06:48:53.453251 UTC,2026-04-17 06:48:53.453251,0.969169209
1776408533460943334,0.211,,,,2026-04-17 06:48:53.460943 UTC,2026-04-17 06:48:53.460943,0.976861068
1776408533468635193,0.164,,,,2026-04-17 06:48:53.468635 UTC,2026-04-17 06:48:53.468635,0.984552927
1776408533476327052,0.132,,,,2026-04-17 06:48:53.476327 UTC,2026-04-17 06:48:53.476327,0.992244786
1776408533484018911,0.098,,,,2026-04-17 06:48:53.484018 UTC,2026-04-17 06:48:53.484018,0.999936645
1776408533491710770,0.053,,,,2026-04-17 06:48:53.491710 UTC,2026-04-17 06:48:53.491710,1.007628504
1776408533499402629,0.026,,,,2026-04-17 06:48:53.499402 UTC,2026-04-17 06:48:53.499402,1.015320363
1776408533507094488,0.019,,,,2026-04-17 06:48:53.507094 UTC,2026-04-17 06:48:53.507094,1.023012222
1776408533514786347,0.007,,,,2026-04-17 06:48:53.514786 UTC,2026-04-17 06:48:53.514786,1.030704081
1776408533522478206,-0.004,,,,2026-04-17 06:48:53.522478 UTC,2026-04-17 06:48:53.522478,1.03839594
1776408533530170065,0.002,,,,2026-04-17 06:48:53.530170 UTC,2026-04-17 06:48:53.530170,1.046087799
1776408533537861924,0.009,,,,2026-04-17 06:48:53.537861 UTC,2026-04-17 06:48:53.537861,1.053779658
1776408533545553783,0.009,,,,2026-04-17 06:48:53.545553 UTC,2026-04-17 06:48:53.545553,1.061471517
1776408533553245642,0.017,,,,2026-04-17 06:48:53.553245 UTC,2026-04-17 06:48:53.553245,1.069163376
1776408533560937501,0.014,,,,2026-04-17 06:48:53.560937 UTC,2026-04-17 06:48:53.560937,1.076855235
1776408533568629360,0.017,,,,2026-04-17 06:48:53.568629 UTC,2026-04-17 06:48:53.568629,1.084547094
1776408533576321219,0.036,,,,2026-04-17 06:48:53.576321 UTC,2026-04-17 06:48:53.576321,1.092238953
1776408533584013078,0.044,,,,2026-04-17 06:48:53.584013 UTC,2026-04-17 06:48:53.584013,1.099930812
1776408533591704937,0.044,,,,2026-04-17 06:48:53.591704 UTC,2026-04-17 06:48:53.591704,1.107622671
1776408533599396796,0.056,,,,2026-04-17 06:48:53.599396 UTC,2026-04-17 06:48:53.599396,1.11531453
1776408533607088716,0.056,75.0,,,2026-04-17 06:48:53.607088 UTC,2026-04-17 06:48:53.607088,1.12300645
1776408533614780575,0.036,,,,2026-04-17 06:48:53.614780 UTC,2026-04-17 06:48:53.614780,1.130698309
1776408533622472434,0.034,,,,2026-04-17 06:48:53.622472 UTC,2026-04-17 06:48:53.622472,1.138390168
1776408533630164293,0.051,,,,2026-04-17 06:48:53.630164 UTC,2026-04-17 06:48:53.630164,1.146082027
1776408533637856152,0.056,,,,2026-04-17 06:48:53.637856 UTC,2026-04-17 06:48:53.637856,1.153773886
1776408533645548011,0.041,,,,2026-04-17 06:48:53.645548 UTC,2026-04-17 06:48:53.645548,1.161465745
1776408533653239870,0.031,,,,2026-04-17 06:48:53.653239 UTC,2026-04-17 06:48:53.653239,1.169157604
1776408533660931729,0.039,,,,2026-04-17 06:48:53.660931 UTC,2026-04-17 06:48:53.660931,1.176849463
1776408533668623588,0.036,,,,2026-04-17 06:48:53.668623 UTC,2026-04-17 06:48:53.668623,1.184541322
1776408533676315447,0.024,,,,2026-04-17 06:48:53.676315 UTC,2026-04-17 06:48:53.676315,1.192233181
1776408533684007306,0.014,,,,2026-04-17 06:48:53.684007 UTC,2026-04-17 06:48:53.684007,1.19992504
1776408533691699165,0.004,,,,2026-04-17 06:48:53.691699 UTC,2026-04-17 06:48:53.691699,1.207616899
1776408533699391024,0.0,,,,2026-04-17 06:48:53.699391 UTC,2026-04-17 06:48:53.699391,1.215308758
1776408533707082883,-0.002,,,,2026-04-17 06:48:53.707082 UTC,2026-04-17 06:48:53.707082,1.223000617
1776408533714774742,-0.007,,,,2026-04-17 06:48:53.714774 UTC,2026-04-17 06:48:53.714774,1.230692476
1776408533722466601,0.007,,,,2026-04-17 06:48:53.722466 UTC,2026-04-17 06:48:53.722466,1.238384335
1776408533730158460,0.019,,,,2026-04-17 06:48:53.730158 UTC,2026-04-17 06:48:53.730158,1.246076194
1776408533737850319,0.014,,,,2026-04-17 06:48:53.737850 UTC,2026-04-17 06:48:53.737850,1.253768053
1776408533745542178,0.009,,,,2026-04-17 06:48:53.745542 UTC,2026-04-17 06:48:53.745542,1.261459912
1776408533753234037,0.017,,,,2026-04-17 06:48:53.753234 UTC,2026-04-17 06:48:53.753234,1.269151771
1776408533760925896,0.019,,,,2026-04-17 06:48:53.760925 UTC,2026-04-17 06:48:53.760925,1.27684363
1776408533768617755,0.019,,,,2026-04-17 06:48:53.768617 UTC,2026-04-17 06:48:53.768617,1.284535489
1776408533776309614,0.019,,,,2026-04-17 06:48:53.776309 UTC,2026-04-17 06:48:53.776309,1.292227348
1776408533784001473,0.022,,,,2026-04-17 06:48:53.784001 UTC,2026-04-17 06:48:53.784001,1.299919207
1776408533791693332,0.019,,,,2026-04-17 06:48:53.791693 UTC,2026-04-17 06:48:53.791693,1.307611066
1776408533799385191,0.017,,,,2026-04-17 06:48:53.799385 UTC,2026-04-17 06:48:53.799385,1.315302925
1776408533807077050,0.026,,,,2026-04-17 06:48:53.807077 UTC,2026-04-17 06:48:53.807077,1.322994784
1776408533814768909,0.031,,,,2026-04-17 06:48:53.814768 UTC,2026-04-17 06:48:53.814768,1.330686643
1776408533822460768,0.031,,,,2026-04-17 06:48:53.822460 UTC,2026-04-17 06:48:53.822460,1.338378502
1776408533830152627,0.029,,,,2026-04-17 06:48:53.830152 UTC,2026-04-17 06:48:53.830152,1.346070361
1776408533837844486,0.036,,,,2026-04-17 06:48:53.837844 UTC,2026-04-17 06:48:53.837844,1.35376222
1776408533845536345,0.058,,,,2026-04-17 06:48:53.845536 UTC,2026-04-17 06:48:53.845536,1.361454079
1776408533853228204,0.078,,,,2026-04-17 06:48:53.853228 UTC,2026-04-17 06:48:53.853228,1.369145938
1776408533860920063,0.083,,839.0,,2026-04-17 06:48:53.860920 UTC,2026-04-17 06:48:53.860920,1.376837797
1776408533868611922,0.083,,,,2026-04-17 06:48:53.868611 UTC,2026-04-17 06:48:53.868611,1.384529656
1776408533876303781,0.063,,,,2026-04-17 06:48:53.876303 UTC,2026-04-17 06:48:53.876303,1.392221515
1776408533883995640,0.041,,,,2026-04-17 06:48:53.883995 UTC,2026-04-17 06:48:53.883995,1.399913374
1776408533891687499,0.058,,,,2026-04-17 06:48:53.891687 UTC,2026-04-17 06:48:53.891687,1.407605233
1776408533899379358,0.076,,,,2026-04-17 06:48:53.899379 UTC,2026-04-17 06:48:53.899379,1.415297092
1776408533907071217,0.049,,,,2026-04-17 06:48:53.907071 UTC,2026-04-17 06:48:53.907071,1.422988951
1776408533914763076,0.041,,,,2026-04-17 06:48:53.914763 UTC,2026-04-17 06:48:53.914763,1.43068081
1776408533922454935,0.066,,,,2026-04-17 06:48:53.922454 UTC,2026-04-17 06:48:53.922454,1.438372669
1776408533930146794,0.063,,,,2026-04-17 06:48:53.930146 UTC,2026-04-17 06:48:53.930146,1.446064528
1776408533937838653,0.049,,,,2026-04-17 06:48:53.937838 UTC,2026-04-17 06:48:53.937838,1.453756387
1776408533945530512,0.056,,,,2026-04-17 06:48:53.945530 UTC,2026-04-17 06:48:53.945530,1.461448246
1776408533953222371,0.188,,,,2026-04-17 06:48:53.953222 UTC,2026-04-17 06:48:53.953222,1.469140105
1776408533960914230,0.679,,,,2026-04-17 06:48:53.960914 UTC,2026-04-17 06:48:53.960914,1.476831964
1776408533968606089,1.371,,,,2026-04-17 06:48:53.968606 UTC,2026-04-17 06:48:53.968606,1.484523823
1776408533976297948,1.263,,,,2026-04-17 06:48:53.976297 UTC,2026-04-17 06:48:53.976297,1.492215682
1776408533983989807,-0.284,,,,2026-04-17 06:48:53.983989 UTC,2026-04-17 06:48:53.983989,1.499907541
1776408533991681666,-1.732,,,,2026-04-17 06:48:53.991681 UTC,2026-04-17 06:48:53.991681,1.5075994
1776408533999373525,-1.442,,,,2026-04-17 06:48:53.999373 UTC,2026-04-17 06:48:53.999373,1.515291259
1776408534007065384,-0.544,,,,2026-04-17 06:48:54.007065 UTC,2026-04-17 06:48:54.007065,1.522983118
1776408534014757243,-0.255,,,,2026-04-17 06:48:54.014757 UTC,2026-04-17 06:48:54.014757,1.530674977
1776408534022449102,-0.019,,,,2026-04-17 06:48:54.022449 UTC,2026-04-17 06:48:54.022449,1.538366836
1776408534030140961,0.269,,,,2026-04-17 06:48:54.030140 UTC,2026-04-17 06:48:54.030140,1.546058695
1776408534037832820,0.245,,,,2026-04-17 06:48:54.037832 UTC,2026-04-17 06:48:54.037832,1.553750554
1776408534045524679,0.191,,,,2026-04-17 06:48:54.045524 UTC,2026-04-17 06:48:54.045524,1.561442413
1776408534053216538,0.274,,,,2026-04-17 06:48:54.053216 UTC,2026-04-17 06:48:54.053216,1.569134272
1776408534060908397,0.287,,,,2026-04-17 06:48:54.060908 UTC,2026-04-17 06:48:54.060908,1.576826131
1776408534068600256,0.257,,,,2026-04-17 06:48:54.068600 UTC,2026-04-17 06:48:54.068600,1.58451799
1776408534076292115,0.279,,,,2026-04-17 06:48:54.076292 UTC,2026-04-17 06:48:54.076292,1.592209849
1776408534083983974,0.294,,,,2026-04-17 06:48:54.083983 UTC,2026-04-17 06:48:54.083983,1.599901708
1776408534091675833,0.287,,,,2026-04-17 06:48:54.091675 UTC,2026-04-17 06:48:54.091675,1.607593567
1776408534099367692,0.291,,,,2026-04-17 06:48:54.099367 UTC,2026-04-17 06:48:54.099367,1.615285426
1776408534107059551,0.299,,,,2026-04-17 06:48:54.107059 UTC,2026-04-17 06:48:54.107059,1.622977285
1776408534114751410,0.306,,,,2026-04-17 06:48:54.114751 UTC,2026-04-17 06:48:54.114751,1.630669144
1776408534122443269,0.338,,,,2026-04-17 06:48:54.122443 UTC,2026-04-17 06:48:54.122443,1.638361003
1776408534130135128,0.35,,,,2026-04-17 06:48:54.130135 UTC,2026-04-17 06:48:54.130135,1.646052862
1776408534137826987,0.341,,,,2026-04-17 06:48:54.137826 UTC,2026-04-17 06:48:54.137826,1.653744721
1776408534145518846,0.35,,,,2026-04-17 06:48:54.145518 UTC,2026-04-17 06:48:54.145518,1.66143658
1776408534153210705,0.372,,,,2026-04-17 06:48:54.153210 UTC,2026-04-17 06:48:54.153210,1.669128439
1776408534160902564,0.385,,,,2026-04-17 06:48:54.160902 UTC,2026-04-17 06:48:54.160902,1.676820298
1776408534168594484,0.39,,,,2026-04-17 06:48:54.168594 UTC,2026-04-17 06:48:54.168594,1.684512218
1776408534176286552,0.387,,,,2026-04-17 06:48:54.176286 UTC,2026-04-17 06:48:54.176286,1.692204286
1776408534183978620,0.385,,,,2026-04-17 06:48:54.183978 UTC,2026-04-17 06:48:54.183978,1.699896354
1776408534191670688,0.39,,,,2026-04-17 06:48:54.191670 UTC,2026-04-17 06:48:54.191670,1.707588422
1776408534199362756,0.387,,,,2026-04-17 06:48:54.199362 UTC,2026-04-17 06:48:54.199362,1.71528049
1776408534207054824,0.372,,,,2026-04-17 06:48:54.207054 UTC,2026-04-17 06:48:54.207054,1.722972558
1776408534214746892,0.338,,,,2026-04-17 06:48:54.214746 UTC,2026-04-17 06:48:54.214746,1.730664626
1776408534222438960,0.289,,,,2026-04-17 06:48:54.222438 UTC,2026-04-17 06:48:54.222438,1.738356694
1776408534230131028,0.247,,,,2026-04-17 06:48:54.230131 UTC,2026-04-17 06:48:54.230131,1.746048762
1776408534237823096,0.193,,,,2026-04-17 06:48:54.237823 UTC,2026-04-17 06:48:54.237823,1.75374083
1776408534245515164,0.144,,,,2026-04-17 06:48:54.245515 UTC,2026-04-17 06:48:54.245515,1.761432898
1776408534253207232,0.115,,,,2026-04-17 06:48:54.253207 UTC,2026-04-17 06:48:54.253207,1.769124966
1776408534260899300,0.085,,,,2026-04-17 06:48:54.260899 UTC,2026-04-17 06:48:54.260899,1.776817034
1776408534268591368,0.051,,,,2026-04-17 06:48:54.268591 UTC,2026-04-17 06:48:54.268591,1.784509102
1776408534276283436,0.019,,,,2026-04-17 06:48:54.276283 UTC,2026-04-17 06:48:54.276283,1.79220117
1776408534283975504,-0.004,,,,2026-04-17 06:48:54.283975 UTC,2026-04-17 06:48:54.283975,1.799893238
1776408534291667572,-0.007,,,,2026-04-17 06:48:54.291667 UTC,2026-04-17 06:48:54.291667,1.807585306
1776408534299359640,-0.019,,,,2026-04-17 06:48:54.299359 UTC,2026-04-17 06:48:54.299359,1.815277374
1776408534307051708,-0.046,,,,2026-04-17 06:48:54.307051 UTC,2026-04-17 06:48:54.307051,1.822969442
1776408534314743776,-0.022,,,,2026-04-17 06:48:54.314743 UTC,2026-04-17 06:48:54.314743,1.83066151
1776408534322435844,0.012,,,,2026-04-17 06:48:54.322435 UTC,2026-04-17 06:48:54.322435,1.838353578
1776408534330127912,-0.002,,,,2026-04-17 06:48:54.330127 UTC,2026-04-17 06:48:54.330127,1.846045646
1776408534337819980,-0.002,,,,2026-04-17 06:48:54.337819 UTC,2026-04-17 06:48:54.337819,1.853737714
1776408534345512048,0.019,,,,2026-04-17 06:48:54.345512 UTC,2026-04-17 06:48:54.345512,1.861429782
1776408534353204116,0.019,,,,2026-04-17 06:48:54.353204 UTC,2026-04-17 06:48:54.353204,1.86912185
1776408534360896184,0.019,,,,2026-04-17 06:48:54.360896 UTC,2026-04-17 06:48:54.360896,1.876813918
1776408534368588252,0.034,,,,2026-04-17 06:48:54.368588 UTC,2026-04-17 06:48:54.368588,1.884505986
1776408534376280320,0.036,,,,2026-04-17 06:48:54.376280 UTC,2026-04-17 06:48:54.376280,1.892198054
1776408534383972388,0.034,,,,2026-04-17 06:48:54.383972 UTC,2026-04-17 06:48:54.383972,1.899890122
1776408534391664456,0.049,,,,2026-04-17 06:48:54.391664 UTC,2026-04-17 06:48:54.391664,1.90758219
1776408534399356524,0.051,,,,2026-04-17 06:48:54.399356 UTC,2026-04-17 06:48:54.399356,1.915274258
1776408534407048592,0.031,,,,2026-04-17 06:48:54.407048 UTC,2026-04-17 06:48:54.407048,1.922966326
1776408534414740660,0.034,,,,2026-04-17 06:48:54.414740 UTC,2026-04-17 06:48:54.414740,1.930658394
1776408534422432728,0.049,,,,2026-04-17 06:48:54.422432 UTC,2026-04-17 06:48:54.422432,1.938350462
1776408534430124796,0.039,,,,2026-04-17 06:48:54.430124 UTC,2026-04-17 06:48:54.430124,1.94604253
1776408534437816864,0.022,,,,2026-04-17 06:48:54.437816 UTC,2026-04-17 06:48:54.437816,1.953734598
1776408534445508932,0.017,,,,2026-04-17 06:48:54.445508 UTC,2026-04-17 06:48:54.445508,1.961426666
1776408534453201000,0.017,,,,2026-04-17 06:48:54.453201 UTC,2026-04-17 06:48:54.453201,1.969118734
1776408534460893068,0.029,,,,2026-04-17 06:48:54.460893 UTC,2026-04-17 06:48:54.460893,1.976810802
1776408534468585136,0.029,,,,2026-04-17 06:48:54.468585 UTC,2026-04-17 06:48:54.468585,1.98450287
1776408534476277204,0.017,,,,2026-04-17 06:48:54.476277 UTC,2026-04-17 06:48:54.476277,1.992194938
1776408534483969272,0.014,,,,2026-04-17 06:48:54.483969 UTC,2026-04-17 06:48:54.483969,1.999887006
1776408534491661340,0.009,,,,2026-04-17 06:48:54.491661 UTC,2026-04-17 06:48:54.491661,2.007579074
1776408534499353408,0.002,,,,2026-04-17 06:48:54.499353 UTC,2026-04-17 06:48:54.499353,2.015271142
1776408534507045476,0.007,,,,2026-04-17 06:48:54.507045 UTC,2026-04-17 06:48:54.507045,2.02296321
1776408534514737544,0.002,,,,2026-04-17 06:48:54.514737 UTC,2026-04-17 06:48:54.514737,2.030655278
1776408534522429612,-0.004,,,,2026-04-17 06:48:54.522429 UTC,2026-04-17 06:48:54.522429,2.038347346
1776408534530121680,0.0,,,,2026-04-17 06:48:54.530121 UTC,2026-04-17 06:48:54.530121,2.046039414
1776408534537813748,0.009,,,,2026-04-17 06:48:54.537813 UTC,2026-04-17 06:48:54.537813,2.053731482
1776408534545505816,0.017,,,,2026-04-17 06:48:54.545505 UTC,2026-04-17 06:48:54.545505,2.06142355
1776408534553197884,0.019,,,,2026-04-17 06:48:54.553197 UTC,2026-04-17 06:48:54.553197,2.069115618
1776408534560889952,0.029,,,,2026-04-17 06:48:54.560889 UTC,2026-04-17 06:48:54.560889,2.076807686
1776408534568582020,0.024,,,,2026-04-17 06:48:54.568582 UTC,2026-04-17 06:48:54.568582,2.084499754
1776408534576274088,0.012,,,,2026-04-17 06:48:54.576274 UTC,2026-04-17 06:48:54.576274,2.092191822
1776408534583966156,0.019,,,,2026-04-17 06:48:54.583966 UTC,2026-04-17 06:48:54.583966,2.09988389
1776408534591658224,0.034,,,,2026-04-17 06:48:54.591658 UTC,2026-04-17 06:48:54.591658,2.107575958
1776408534599350292,0.036,,,,2026-04-17 06:48:54.599350 UTC,2026-04-17 06:48:54.599350,2.115268026
1776408534607042360,0.036,,,,2026-04-17 06:48:54.607042 UTC,2026-04-17 06:48:54.607042,2.122960094
1776408534614734428,0.039,,,,2026-04-17 06:48:54.614734 UTC,2026-04-17 06:48:54.614734,2.130652162
1776408534622426496,0.058,,,,2026-04-17 06:48:54.622426 UTC,2026-04-17 06:48:54.622426,2.13834423
1776408534630118564,0.078,,,,2026-04-17 06:48:54.630118 UTC,2026-04-17 06:48:54.630118,2.146036298
1776408534637810632,0.085,,,,2026-04-17 06:48:54.637810 UTC,2026-04-17 06:48:54.637810,2.153728366
1776408534645502700,0.09,,,,2026-04-17 06:48:54.645502 UTC,2026-04-17 06:48:54.645502,2.161420434
1776408534653194768,0.08,,,,2026-04-17 06:48:54.653194 UTC,2026-04-17 06:48:54.653194,2.169112502
1776408534660886836,0.066,,,,2026-04-17 06:48:54.660886 UTC,2026-04-17 06:48:54.660886,2.17680457
1776408534668578904,0.053,,,,2026-04-17 06:48:54.668578 UTC,2026-04-17 06:48:54.668578,2.184496638
1776408534676270972,0.046,,,,2026-04-17 06:48:54.676270 UTC,2026-04-17 06:48:54.676270,2.192188706
1776408534683963040,0.044,,818.0,,2026-04-17 06:48:54.683963 UTC,2026-04-17 06:48:54.683963,2.199880774
1776408534691655108,0.041,,,,2026-04-17 06:48:54.691655 UTC,2026-04-17 06:48:54.691655,2.207572842
1776408534699347176,0.041,,,,2026-04-17 06:48:54.699347 UTC,2026-04-17 06:48:54.699347,2.21526491
1776408534707039244,0.044,,,,2026-04-17 06:48:54.707039 UTC,2026-04-17 06:48:54.707039,2.222956978
1776408534714731312,0.041,,,,2026-04-17 06:48:54.714731 UTC,2026-04-17 06:48:54.714731,2.230649046
1776408534722423380,0.068,,,,2026-04-17 06:48:54.722423 UTC,2026-04-17 06:48:54.722423,2.238341114
1776408534730115512,0.25,75.0,,,2026-04-17 06:48:54.730115 UTC,2026-04-17 06:48:54.730115,2.246033246
1776408534737807302,0.785,,,,2026-04-17 06:48:54.737807 UTC,2026-04-17 06:48:54.737807,2.253725036
1776408534745499092,1.428,,,,2026-04-17 06:48:54.745499 UTC,2026-04-17 06:48:54.745499,2.261416826
1776408534753190882,1.055,,,,2026-04-17 06:48:54.753190 UTC,2026-04-17 06:48:54.753190,2.269108616
1776408534760882672,-0.6890000000000001,,,,2026-04-17 06:48:54.760882 UTC,2026-04-17 06:48:54.760882,2.276800406
1776408534768574462,-1.867,,,,2026-04-17 06:48:54.768574 UTC,2026-04-17 06:48:54.768574,2.284492196
1776408534776266252,-1.305,,,,2026-04-17 06:48:54.776266 UTC,2026-04-17 06:48:54.776266,2.292183986
1776408534783958042,-0.542,,,,2026-04-17 06:48:54.783958 UTC,2026-04-17 06:48:54.783958,2.299875776
1776408534791649832,-0.343,,,,2026-04-17 06:48:54.791649 UTC,2026-04-17 06:48:54.791649,2.307567566
1776408534799341622,-0.012,,,,2026-04-17 06:48:54.799341 UTC,2026-04-17 06:48:54.799341,2.315259356
1776408534807033412,0.274,,,,2026-04-17 06:48:54.807033 UTC,2026-04-17 06:48:54.807033,2.322951146
1776408534814725202,0.206,,,,2026-04-17 06:48:54.814725 UTC,2026-04-17 06:48:54.814725,2.330642936
1776408534822416992,0.174,,,,2026-04-17 06:48:54.822416 UTC,2026-04-17 06:48:54.822416,2.338334726
1776408534830108782,0.267,,,,2026-04-17 06:48:54.830108 UTC,2026-04-17 06:48:54.830108,2.346026516
1776408534837800572,0.257,,,,2026-04-17 06:48:54.837800 UTC,2026-04-17 06:48:54.837800,2.353718306
1776408534845492362,0.233,,,,2026-04-17 06:48:54.845492 UTC,2026-04-17 06:48:54.845492,2.361410096
1776408534853184152,0.262,,,,2026-04-17 06:48:54.853184 UTC,2026-04-17 06:48:54.853184,2.369101886
1776408534860875942,0.262,,,,2026-04-17 06:48:54.860875 UTC,2026-04-17 06:48:54.860875,2.376793676
1776408534868567732,0.255,,,,2026-04-17 06:48:54.868567 UTC,2026-04-17 06:48:54.868567,2.384485466
1776408534876259522,0.279,,,,2026-04-17 06:48:54.876259 UTC,2026-04-17 06:48:54.876259,2.392177256
1776408534883951312,0.299,,,,2026-04-17 06:48:54.883951 UTC,2026-04-17 06:48:54.883951,2.399869046
1776408534891643102,0.309,,,,2026-04-17 06:48:54.891643 UTC,2026-04-17 06:48:54.891643,2.407560836
1776408534899334892,0.318,,,,2026-04-17 06:48:54.899334 UTC,2026-04-17 06:48:54.899334,2.415252626
1776408534907026682,0.318,,,,2026-04-17 06:48:54.907026 UTC,2026-04-17 06:48:54.907026,2.422944416
1776408534914718472,0.326,,,,2026-04-17 06:48:54.914718 UTC,2026-04-17 06:48:54.914718,2.430636206
1776408534922410262,0.345,,,,2026-04-17 06:48:54.922410 UTC,2026-04-17 06:48:54.922410,2.438327996
1776408534930102052,0.355,,,,2026-04-17 06:48:54.930102 UTC,2026-04-17 06:48:54.930102,2.446019786
1776408534937793842,0.365,,,,2026-04-17 06:48:54.937793 UTC,2026-04-17 06:48:54.937793,2.453711576
1776408534945485632,0.382,,,,2026-04-17 06:48:54.945485 UTC,2026-04-17 06:48:54.945485,2.461403366
1776408534953177422,0.399,,,,2026-04-17 06:48:54.953177 UTC,2026-04-17 06:48:54.953177,2.469095156
1776408534960869212,0.402,,,,2026-04-17 06:48:54.960869 UTC,2026-04-17 06:48:54.960869,2.476786946
1776408534968561002,0.387,,,,2026-04-17 06:48:54.968561 UTC,2026-04-17 06:48:54.968561,2.484478736
1776408534976252792,0.36,,,,2026-04-17 06:48:54.976252 UTC,2026-04-17 06:48:54.976252,2.492170526
1776408534983944582,0.323,,,,2026-04-17 06:48:54.983944 UTC,2026-04-17 06:48:54.983944,2.499862316
1776408534991636372,0.299,,,,2026-04-17 06:48:54.991636 UTC,2026-04-17 06:48:54.991636,2.507554106
1776408534999328162,0.274,,,,2026-04-17 06:48:54.999328 UTC,2026-04-17 06:48:54.999328,2.515245896
1776408535007019952,0.225,,,,2026-04-17 06:48:55.007019 UTC,2026-04-17 06:48:55.007019,2.522937686
1776408535014711742,0.171,,,,2026-04-17 06:48:55.014711 UTC,2026-04-17 06:48:55.014711,2.530629476
1776408535022403532,0.132,,,,2026-04-17 06:48:55.022403 UTC,2026-04-17 06:48:55.022403,2.538321266
1776408535030095322,0.095,,,,2026-04-17 06:48:55.030095 UTC,2026-04-17 06:48:55.030095,2.546013056
1776408535037787112,0.066,,,,2026-04-17 06:48:55.037787 UTC,2026-04-17 06:48:55.037787,2.553704846
1776408535045478902,0.041,,,,2026-04-17 06:48:55.045478 UTC,2026-04-17 06:48:55.045478,2.561396636
1776408535053170692,0.002,,,,2026-04-17 06:48:55.053170 UTC,2026-04-17 06:48:55.053170,2.569088426
1776408535060862482,-0.031,,,,2026-04-17 06:48:55.060862 UTC,2026-04-17 06:48:55.060862,2.576780216
1776408535068554272,-0.014,,,,2026-04-17 06:48:55.068554 UTC,2026-04-17 06:48:55.068554,2.584472006
1776408535076246062,0.017,,,,2026-04-17 06:48:55.076246 UTC,2026-04-17 06:48:55.076246,2.592163796
1776408535083937852,-0.002,,,,2026-04-17 06:48:55.083937 UTC,2026-04-17 06:48:55.083937,2.599855586
1776408535091629642,-0.009,,,,2026-04-17 06:48:55.091629 UTC,2026-04-17 06:48:55.091629,2.607547376
1776408535099321432,0.002,,,,2026-04-17 06:48:55.099321 UTC,2026-04-17 06:48:55.099321,2.615239166
1776408535107013222,0.004,,,,2026-04-17 06:48:55.107013 UTC,2026-04-17 06:48:55.107013,2.622930956
1776408535114705012,0.012,,,,2026-04-17 06:48:55.114705 UTC,2026-04-17 06:48:55.114705,2.630622746
1776408535122396802,0.024,,,,2026-04-17 06:48:55.122396 UTC,2026-04-17 06:48:55.122396,2.638314536
1776408535130088592,0.034,,,,2026-04-17 06:48:55.130088 UTC,2026-04-17 06:48:55.130088,2.646006326
1776408535137780382,0.051,,,,2026-04-17 06:48:55.137780 UTC,2026-04-17 06:48:55.137780,2.653698116
1776408535145472172,0.051,,,,2026-04-17 06:48:55.145472 UTC,2026-04-17 06:48:55.145472,2.661389906
1776408535153163962,0.034,,,,2026-04-17 06:48:55.153163 UTC,2026-04-17 06:48:55.153163,2.669081696
1776408535160855752,0.051,,,,2026-04-17 06:48:55.160855 UTC,2026-04-17 06:48:55.160855,2.676773486
1776408535168547542,0.08,,,,2026-04-17 06:48:55.168547 UTC,2026-04-17 06:48:55.168547,2.684465276
1776408535176239332,0.061,,,,2026-04-17 06:48:55.176239 UTC,2026-04-17 06:48:55.176239,2.692157066
1776408535183931122,0.044,,,,2026-04-17 06:48:55.183931 UTC,2026-04-17 06:48:55.183931,2.699848856
1776408535191622912,0.071,,,,2026-04-17 06:48:55.191622 UTC,2026-04-17 06:48:55.191622,2.707540646
1776408535199314702,0.078,,,,2026-04-17 06:48:55.199314 UTC,2026-04-17 06:48:55.199314,2.715232436
1776408535207006492,0.051,,,,2026-04-17 06:48:55.207006 UTC,2026-04-17 06:48:55.207006,2.722924226
1776408535214698282,0.039,,,,2026-04-17 06:48:55.214698 UTC,2026-04-17 06:48:55.214698,2.730616016
1776408535222390072,0.031,,,,2026-04-17 06:48:55.222390 UTC,2026-04-17 06:48:55.222390,2.738307806
1776408535230081862,0.017,,,,2026-04-17 06:48:55.230081 UTC,2026-04-17 06:48:55.230081,2.745999596
1776408535237773652,0.012,,,,2026-04-17 06:48:55.237773 UTC,2026-04-17 06:48:55.237773,2.753691386
1776408535245465442,0.017,,,,2026-04-17 06:48:55.245465 UTC,2026-04-17 06:48:55.245465,2.761383176
1776408535253157232,0.029,,,,2026-04-17 06:48:55.253157 UTC,2026-04-17 06:48:55.253157,2.769074966
1776408535260849022,0.024,,,,2026-04-17 06:48:55.260849 UTC,2026-04-17 06:48:55.260849,2.776766756
1776408535268540812,0.022,,,,2026-04-17 06:48:55.268540 UTC,2026-04-17 06:48:55.268540,2.784458546
1776408535276232602,0.034,,,,2026-04-17 06:48:55.276232 UTC,2026-04-17 06:48:55.276232,2.792150336
1776408535283924392,0.044,,,,2026-04-17 06:48:55.283924 UTC,2026-04-17 06:48:55.283924,2.799842126
1776408535291616194,0.036,,,,2026-04-17 06:48:55.291616 UTC,2026-04-17 06:48:55.291616,2.807533928
1776408535299307984,0.024,,,,2026-04-17 06:48:55.299307 UTC,2026-04-17 06:48:55.299307,2.815225718
1776408535306999774,0.024,,,,2026-04-17 06:48:55.306999 UTC,2026-04-17 06:48:55.306999,2.822917508
1776408535314691564,0.017,,,,2026-04-17 06:48:55.314691 UTC,2026-04-17 06:48:55.314691,2.830609298
1776408535322383354,0.002,,,,2026-04-17 06:48:55.322383 UTC,2026-04-17 06:48:55.322383,2.838301088
1776408535330075144,0.004,,,,2026-04-17 06:48:55.330075 UTC,2026-04-17 06:48:55.330075,2.845992878
1776408535337766934,0.017,,,,2026-04-17 06:48:55.337766 UTC,2026-04-17 06:48:55.337766,2.853684668
1776408535345458724,0.022,,,,2026-04-17 06:48:55.345458 UTC,2026-04-17 06:48:55.345458,2.861376458
1776408535353150514,0.029,,,,2026-04-17 06:48:55.353150 UTC,2026-04-17 06:48:55.353150,2.869068248
1776408535360842304,0.049,,,,2026-04-17 06:48:55.360842 UTC,2026-04-17 06:48:55.360842,2.876760038
1776408535368534094,0.044,,,,2026-04-17 06:48:55.368534 UTC,2026-04-17 06:48:55.368534,2.884451828
1776408535376225884,0.029,,,,2026-04-17 06:48:55.376225 UTC,2026-04-17 06:48:55.376225,2.892143618
1776408535383917674,0.044,,,,2026-04-17 06:48:55.383917 UTC,2026-04-17 06:48:55.383917,2.899835408
1776408535391609464,0.029,,,,2026-04-17 06:48:55.391609 UTC,2026-04-17 06:48:55.391609,2.907527198
1776408535399301254,-0.014,,,,2026-04-17 06:48:55.399301 UTC,2026-04-17 06:48:55.399301,2.915218988
1776408535406993044,-0.007,,,,2026-04-17 06:48:55.406993 UTC,2026-04-17 06:48:55.406993,2.922910778
1776408535414684834,0.012,,,,2026-04-17 06:48:55.414684 UTC,2026-04-17 06:48:55.414684,2.930602568
1776408535422376624,0.004,,743.0,,2026-04-17 06:48:55.422376 UTC,2026-04-17 06:48:55.422376,2.938294358
1776408535430068414,0.007,,,,2026-04-17 06:48:55.430068 UTC,2026-04-17 06:48:55.430068,2.945986148
1776408535437760204,0.024,,,,2026-04-17 06:48:55.437760 UTC,2026-04-17 06:48:55.437760,2.953677938
1776408535445451994,0.029,,,,2026-04-17 06:48:55.445451 UTC,2026-04-17 06:48:55.445451,2.961369728
1776408535453143784,0.152,,,,2026-04-17 06:48:55.453143 UTC,2026-04-17 06:48:55.453143,2.969061518
1776408535460835574,0.662,,,,2026-04-17 06:48:55.460835 UTC,2026-04-17 06:48:55.460835,2.976753308
1776408535468527364,1.383,,,,2026-04-17 06:48:55.468527 UTC,2026-04-17 06:48:55.468527,2.984445098
1776408535476219154,1.251,,,,2026-04-17 06:48:55.476219 UTC,2026-04-17 06:48:55.476219,2.992136888
1776408535483910944,-0.387,,,,2026-04-17 06:48:55.483910 UTC,2026-04-17 06:48:55.483910,2.999828678
1776408535491602734,-1.879,,,,2026-04-17 06:48:55.491602 UTC,2026-04-17 06:48:55.491602,3.007520468
1776408535499294524,-1.545,,,,2026-04-17 06:48:55.499294 UTC,2026-04-17 06:48:55.499294,3.015212258
1776408535506986314,-0.628,,,,2026-04-17 06:48:55.506986 UTC,2026-04-17 06:48:55.506986,3.022904048
1776408535514678104,-0.353,,,,2026-04-17 06:48:55.514678 UTC,2026-04-17 06:48:55.514678,3.030595838
1776408535522369894,-0.085,,,,2026-04-17 06:48:55.522369 UTC,2026-04-17 06:48:55.522369,3.038287628
1776408535530061684,0.252,,,,2026-04-17 06:48:55.530061 UTC,2026-04-17 06:48:55.530061,3.045979418
1776408535537753474,0.233,,,,2026-04-17 06:48:55.537753 UTC,2026-04-17 06:48:55.537753,3.053671208
1776408535545445264,0.169,,,,2026-04-17 06:48:55.545445 UTC,2026-04-17 06:48:55.545445,3.061362998
1776408535553137054,0.26,,,,2026-04-17 06:48:55.553137 UTC,2026-04-17 06:48:55.553137,3.069054788
1776408535560828844,0.279,,,,2026-04-17 06:48:55.560828 UTC,2026-04-17 06:48:55.560828,3.076746578
1776408535568520634,0.242,,,,2026-04-17 06:48:55.568520 UTC,2026-04-17 06:48:55.568520,3.084438368
1776408535576212424,0.267,,,,2026-04-17 06:48:55.576212 UTC,2026-04-17 06:48:55.576212,3.092130158
1776408535583904214,0.294,,,,2026-04-17 06:48:55.583904 UTC,2026-04-17 06:48:55.583904,3.099821948
1776408535591596004,0.287,,,,2026-04-17 06:48:55.591596 UTC,2026-04-17 06:48:55.591596,3.107513738
1776408535599287794,0.289,,,,2026-04-17 06:48:55.599287 UTC,2026-04-17 06:48:55.599287,3.115205528
1776408535606979584,0.304,,,,2026-04-17 06:48:55.606979 UTC,2026-04-17 06:48:55.606979,3.122897318
1776408535614671374,0.306,,,,2026-04-17 06:48:55.614671 UTC,2026-04-17 06:48:55.614671,3.130589108
1776408535622363164,0.296,,,,2026-04-17 06:48:55.622363 UTC,2026-04-17 06:48:55.622363,3.138280898
1776408535630054954,0.309,,,,2026-04-17 06:48:55.630054 UTC,2026-04-17 06:48:55.630054,3.145972688
1776408535637746744,0.35,,,,2026-04-17 06:48:55.637746 UTC,2026-04-17 06:48:55.637746,3.153664478
1776408535645438534,0.375,,,,2026-04-17 06:48:55.645438 UTC,2026-04-17 06:48:55.645438,3.161356268
1776408535653130324,0.363,,,,2026-04-17 06:48:55.653130 UTC,2026-04-17 06:48:55.653130,3.169048058
1776408535660822114,0.382,,,,2026-04-17 06:48:55.660822 UTC,2026-04-17 06:48:55.660822,3.176739848
1776408535668513904,0.412,,,,2026-04-17 06:48:55.668513 UTC,2026-04-17 06:48:55.668513,3.184431638
1776408535676205694,0.404,,,,2026-04-17 06:48:55.676205 UTC,2026-04-17 06:48:55.676205,3.192123428
1776408535683897484,0.392,,,,2026-04-17 06:48:55.683897 UTC,2026-04-17 06:48:55.683897,3.199815218
1776408535691589274,0.409,,,,2026-04-17 06:48:55.691589 UTC,2026-04-17 06:48:55.691589,3.207507008
1776408535699281064,0.412,,,,2026-04-17 06:48:55.699281 UTC,2026-04-17 06:48:55.699281,3.215198798
1776408535706972854,0.37,,,,2026-04-17 06:48:55.706972 UTC,2026-04-17 06:48:55.706972,3.222890588
1776408535714664644,0.333,,,,2026-04-17 06:48:55.714664 UTC,2026-04-17 06:48:55.714664,3.230582378
1776408535722356434,0.316,,,,2026-04-17 06:48:55.722356 UTC,2026-04-17 06:48:55.722356,3.238274168
1776408535730048224,0.267,,,,2026-04-17 06:48:55.730048 UTC,2026-04-17 06:48:55.730048,3.245965958
1776408535737740014,0.206,,,,2026-04-17 06:48:55.737740 UTC,2026-04-17 06:48:55.737740,3.253657748
1776408535745431804,0.161,,,,2026-04-17 06:48:55.745431 UTC,2026-04-17 06:48:55.745431,3.261349538
1776408535753123594,0.117,,,,2026-04-17 06:48:55.753123 UTC,2026-04-17 06:48:55.753123,3.269041328
1776408535760815384,0.076,,,,2026-04-17 06:48:55.760815 UTC,2026-04-17 06:48:55.760815,3.276733118
1776408535768507174,0.061,,,,2026-04-17 06:48:55.768507 UTC,2026-04-17 06:48:55.768507,3.284424908
1776408535776198964,0.039,,,,2026-04-17 06:48:55.776198 UTC,2026-04-17 06:48:55.776198,3.292116698
1776408535783890754,-0.007,,,,2026-04-17 06:48:55.783890 UTC,2026-04-17 06:48:55.783890,3.299808488
1776408535791582544,-0.041,,,,2026-04-17 06:48:55.791582 UTC,2026-04-17 06:48:55.791582,3.307500278
1776408535799274334,-0.014,,,,2026-04-17 06:48:55.799274 UTC,2026-04-17 06:48:55.799274,3.315192068
1776408535806966124,0.024,,,,2026-04-17 06:48:55.806966 UTC,2026-04-17 06:48:55.806966,3.322883858
1776408535814657914,0.0,,,,2026-04-17 06:48:55.814657 UTC,2026-04-17 06:48:55.814657,3.330575648
1776408535822349704,-0.024,,,,2026-04-17 06:48:55.822349 UTC,2026-04-17 06:48:55.822349,3.338267438
1776408535830041494,-0.004,,,,2026-04-17 06:48:55.830041 UTC,2026-04-17 06:48:55.830041,3.345959228
1776408535837733284,0.002,,,,2026-04-17 06:48:55.837733 UTC,2026-04-17 06:48:55.837733,3.353651018
1776408535845425074,0.002,,,,2026-04-17 06:48:55.845425 UTC,2026-04-17 06:48:55.845425,3.361342808
1776408535853116876,0.007,75.0,,,2026-04-17 06:48:55.853116 UTC,2026-04-17 06:48:55.853116,3.36903461
1776408535860808666,0.019,,,,2026-04-17 06:48:55.860808 UTC,2026-04-17 06:48:55.860808,3.3767264
1776408535868500456,0.044,,,,2026-04-17 06:48:55.868500 UTC,2026-04-17 06:48:55.868500,3.38441819
1776408535876192246,0.053,,,,2026-04-17 06:48:55.876192 UTC,2026-04-17 06:48:55.876192,3.39210998
1776408535883884036,0.041,,,,2026-04-17 06:48:55.883884 UTC,2026-04-17 06:48:55.883884,3.39980177
1776408535891575826,0.044,,,,2026-04-17 06:48:55.891575 UTC,2026-04-17 06:48:55.891575,3.40749356
1776408535899267616,0.053,,,,2026-04-17 06:48:55.899267 UTC,2026-04-17 06:48:55.899267,3.41518535
1776408535906959406,0.046,,,,2026-04-17 06:48:55.906959 UTC,2026-04-17 06:48:55.906959,3.42287714
1776408535914651196,0.044,,,,2026-04-17 06:48:55.914651 UTC,2026-04-17 06:48:55.914651,3.43056893
1776408535922342986,0.053,,,,2026-04-17 06:48:55.922342 UTC,2026-04-17 06:48:55.922342,3.43826072
1776408535930034776,0.044,,,,2026-04-17 06:48:55.930034 UTC,2026-04-17 06:48:55.930034,3.44595251
1776408535937726566,0.022,,,,2026-04-17 06:48:55.937726 UTC,2026-04-17 06:48:55.937726,3.4536443
1776408535945418356,0.019,,,,2026-04-17 06:48:55.945418 UTC,2026-04-17 06:48:55.945418,3.46133609
1776408535953110146,0.024,,,,2026-04-17 06:48:55.953110 UTC,2026-04-17 06:48:55.953110,3.46902788
1776408535960801936,0.007,,,,2026-04-17 06:48:55.960801 UTC,2026-04-17 06:48:55.960801,3.47671967
1776408535968493726,-0.004,,,,2026-04-17 06:48:55.968493 UTC,2026-04-17 06:48:55.968493,3.48441146
1776408535976185516,0.009,,,,2026-04-17 06:48:55.976185 UTC,2026-04-17 06:48:55.976185,3.49210325
1776408535983877306,0.022,,,,2026-04-17 06:48:55.983877 UTC,2026-04-17 06:48:55.983877,3.49979504
1776408535991569096,0.019,,,,2026-04-17 06:48:55.991569 UTC,2026-04-17 06:48:55.991569,3.50748683
1776408535999260886,0.029,,,,2026-04-17 06:48:55.999260 UTC,2026-04-17 06:48:55.999260,3.51517862
1776408536006952676,0.034,,,,2026-04-17 06:48:56.006952 UTC,2026-04-17 06:48:56.006952,3.52287041
1776408536014644466,0.024,,,,2026-04-17 06:48:56.014644 UTC,2026-04-17 06:48:56.014644,3.5305622
1776408536022336256,0.022,,,,2026-04-17 06:48:56.022336 UTC,2026-04-17 06:48:56.022336,3.53825399
1776408536030028046,0.024,,,,2026-04-17 06:48:56.030028 UTC,2026-04-17 06:48:56.030028,3.54594578
1776408536037719836,0.034,,,,2026-04-17 06:48:56.037719 UTC,2026-04-17 06:48:56.037719,3.55363757
1776408536045411626,0.039,,,,2026-04-17 06:48:56.045411 UTC,2026-04-17 06:48:56.045411,3.56132936
1776408536053103416,0.022,,,,2026-04-17 06:48:56.053103 UTC,2026-04-17 06:48:56.053103,3.56902115
1776408536060795206,0.009,,,,2026-04-17 06:48:56.060795 UTC,2026-04-17 06:48:56.060795,3.57671294
1776408536068486996,0.031,,,,2026-04-17 06:48:56.068486 UTC,2026-04-17 06:48:56.068486,3.58440473
1776408536076178786,0.056,,,,2026-04-17 06:48:56.076178 UTC,2026-04-17 06:48:56.076178,3.59209652
1776408536083870576,0.051,,,,2026-04-17 06:48:56.083870 UTC,2026-04-17 06:48:56.083870,3.59978831
1776408536091562366,0.044,,,,2026-04-17 06:48:56.091562 UTC,2026-04-17 06:48:56.091562,3.6074801
1776408536099254156,0.056,,,,2026-04-17 06:48:56.099254 UTC,2026-04-17 06:48:56.099254,3.61517189
1776408536106945946,0.073,,,,2026-04-17 06:48:56.106945 UTC,2026-04-17 06:48:56.106945,3.62286368
1776408536114637736,0.083,,,,2026-04-17 06:48:56.114637 UTC,2026-04-17 06:48:56.114637,3.63055547
1776408536122329526,0.09,,,,2026-04-17 06:48:56.122329 UTC,2026-04-17 06:48:56.122329,3.63824726
1776408536130021316,0.093,,,,2026-04-17 06:48:56.130021 UTC,2026-04-17 06:48:56.130021,3.64593905
1776408536137713106,0.08,,,,2026-04-17 06:48:56.137713 UTC,2026-04-17 06:48:56.137713,3.65363084
1776408536145404896,0.056,,,,2026-04-17 06:48:56.145404 UTC,2026-04-17 06:48:56.145404,3.66132263
1776408536153096686,0.046,,,,2026-04-17 06:48:56.153096 UTC,2026-04-17 06:48:56.153096,3.66901442
1776408536160788476,0.058,,,,2026-04-17 06:48:56.160788 UTC,2026-04-17 06:48:56.160788,3.67670621
1776408536168480266,0.061,,,,2026-04-17 06:48:56.168480 UTC,2026-04-17 06:48:56.168480,3.684398
1776408536176172056,0.046,,,,2026-04-17 06:48:56.176172 UTC,2026-04-17 06:48:56.176172,3.69208979
1776408536183863846,0.044,,,,2026-04-17 06:48:56.183863 UTC,2026-04-17 06:48:56.183863,3.69978158
1776408536191555636,0.061,,768.0,,2026-04-17 06:48:56.191555 UTC,2026-04-17 06:48:56.191555,3.70747337
1776408536199247426,0.066,,,,2026-04-17 06:48:56.199247 UTC,2026-04-17 06:48:56.199247,3.71516516
1776408536206939216,0.083,,,,2026-04-17 06:48:56.206939 UTC,2026-04-17 06:48:56.206939,3.72285695
1776408536214631006,0.318,,,,2026-04-17 06:48:56.214631 UTC,2026-04-17 06:48:56.214631,3.73054874
1776408536222322796,0.986,,,,2026-04-17 06:48:56.222322 UTC,2026-04-17 06:48:56.222322,3.73824053
1776408536230014586,1.55,,,,2026-04-17 06:48:56.230014 UTC,2026-04-17 06:48:56.230014,3.74593232
1776408536237706376,0.812,,,,2026-04-17 06:48:56.237706 UTC,2026-04-17 06:48:56.237706,3.75362411
1776408536245398166,-1.047,,,,2026-04-17 06:48:56.245398 UTC,2026-04-17 06:48:56.245398,3.7613159
1776408536253089956,-1.886,,,,2026-04-17 06:48:56.253089 UTC,2026-04-17 06:48:56.253089,3.76900769
1776408536260781746,-1.074,,,,2026-04-17 06:48:56.260781 UTC,2026-04-17 06:48:56.260781,3.77669948
1776408536268473536,-0.368,,,,2026-04-17 06:48:56.268473 UTC,2026-04-17 06:48:56.268473,3.78439127
1776408536276165326,-0.198,,,,2026-04-17 06:48:56.276165 UTC,2026-04-17 06:48:56.276165,3.79208306
1776408536283857116,0.127,,,,2026-04-17 06:48:56.283857 UTC,2026-04-17 06:48:56.283857,3.79977485
1776408536291548906,0.309,,,,2026-04-17 06:48:56.291548 UTC,2026-04-17 06:48:56.291548,3.80746664
1776408536299240696,0.208,,,,2026-04-17 06:48:56.299240 UTC,2026-04-17 06:48:56.299240,3.81515843
1776408536306932486,0.225,,,,2026-04-17 06:48:56.306932 UTC,2026-04-17 06:48:56.306932,3.82285022
1776408536314624276,0.296,,,,2026-04-17 06:48:56.314624 UTC,2026-04-17 06:48:56.314624,3.83054201
1776408536322316066,0.257,,,,2026-04-17 06:48:56.322316 UTC,2026-04-17 06:48:56.322316,3.8382338
1776408536330007856,0.257,,,,2026-04-17 06:48:56.330007 UTC,2026-04-17 06:48:56.330007,3.84592559
1776408536337699646,0.294,,,,2026-04-17 06:48:56.337699 UTC,2026-04-17 06:48:56.337699,3.85361738
1776408536345391436,0.272,,,,2026-04-17 06:48:56.345391 UTC,2026-04-17 06:48:56.345391,3.86130917
1776408536353083226,0.274,,,,2026-04-17 06:48:56.353083 UTC,2026-04-17 06:48:56.353083,3.86900096
1776408536360775016,0.321,,,,2026-04-17 06:48:56.360775 UTC,2026-04-17 06:48:56.360775,3.87669275
1776408536368466806,0.323,,,,2026-04-17 06:48:56.368466 UTC,2026-04-17 06:48:56.368466,3.88438454
1776408536376158596,0.311,,,,2026-04-17 06:48:56.376158 UTC,2026-04-17 06:48:56.376158,3.89207633
1776408536383850386,0.331,,,,2026-04-17 06:48:56.383850 UTC,2026-04-17 06:48:56.383850,3.89976812
1776408536391542176,0.345,,,,2026-04-17 06:48:56.391542 UTC,2026-04-17 06:48:56.391542,3.90745991
1776408536399233966,0.348,,,,2026-04-17 06:48:56.399233 UTC,2026-04-17 06:48:56.399233,3.9151517
1776408536406925756,0.37,,,,2026-04-17 06:48:56.406925 UTC,2026-04-17 06:48:56.406925,3.92284349
1776408536414617558,0.387,76.0,,,2026-04-17 06:48:56.414617 UTC,2026-04-17 06:48:56.414617,3.930535292
1776408536422309348,0.387,,,,2026-04-17 06:48:56.422309 UTC,2026-04-17 06:48:56.422309,3.938227082
1776408536430001138,0.395,,,,2026-04-17 06:48:56.430001 UTC,2026-04-17 06:48:56.430001,3.945918872
1776408536437692928,0.409,,,,2026-04-17 06:48:56.437692 UTC,2026-04-17 06:48:56.437692,3.953610662
1776408536445384718,0.414,,,,2026-04-17 06:48:56.445384 UTC,2026-04-17 06:48:56.445384,3.961302452
1776408536453076508,0.402,,,,2026-04-17 06:48:56.453076 UTC,2026-04-17 06:48:56.453076,3.968994242
1776408536460768298,0.39,,,,2026-04-17 06:48:56.460768 UTC,2026-04-17 06:48:56.460768,3.976686032
1776408536468460088,0.355,,,,2026-04-17 06:48:56.468460 UTC,2026-04-17 06:48:56.468460,3.984377822
1776408536476151878,0.306,,,,2026-04-17 06:48:56.476151 UTC,2026-04-17 06:48:56.476151,3.992069612
1776408536483843668,0.289,,,,2026-04-17 06:48:56.483843 UTC,2026-04-17 06:48:56.483843,3.999761402
1776408536491535458,0.269,,,,2026-04-17 06:48:56.491535 UTC,2026-04-17 06:48:56.491535,4.007453192
1776408536499227248,0.213,,,,2026-04-17 06:48:56.499227 UTC,2026-04-17 06:48:56.499227,4.015144982
1776408536506919038,0.166,,,,2026-04-17 06:48:56.506919 UTC,2026-04-17 06:48:56.506919,4.022836772
1776408536514610828,0.127,,,,2026-04-17 06:48:56.514610 UTC,2026-04-17 06:48:56.514610,4.030528562
1776408536522302618,0.076,,,,2026-04-17 06:48:56.522302 UTC,2026-04-17 06:48:56.522302,4.038220352
1776408536529994408,0.036,,,,2026-04-17 06:48:56.529994 UTC,2026-04-17 06:48:56.529994,4.045912142
1776408536537686198,0.022,,,,2026-04-17 06:48:56.537686 UTC,2026-04-17 06:48:56.537686,4.053603932
1776408536545377988,0.017,,,,2026-04-17 06:48:56.545377 UTC,2026-04-17 06:48:56.545377,4.061295722
1776408536553069778,0.014,,,,2026-04-17 06:48:56.553069 UTC,2026-04-17 06:48:56.553069,4.068987512
1776408536560761568,0.007,,,,2026-04-17 06:48:56.560761 UTC,2026-04-17 06:48:56.560761,4.076679302
1776408536568453358,-0.002,,,,2026-04-17 06:48:56.568453 UTC,2026-04-17 06:48:56.568453,4.084371092
1776408536576145148,0.009,,,,2026-04-17 06:48:56.576145 UTC,2026-04-17 06:48:56.576145,4.092062882
1776408536583836938,0.029,,,,2026-04-17 06:48:56.583836 UTC,2026-04-17 06:48:56.583836,4.099754672
1776408536591528728,0.034,,,,2026-04-17 06:48:56.591528 UTC,2026-04-17 06:48:56.591528,4.107446462
1776408536599220518,0.031,,,,2026-04-17 06:48:56.599220 UTC,2026-04-17 06:48:56.599220,4.115138252
1776408536606912308,0.039,,,,2026-04-17 06:48:56.606912 UTC,2026-04-17 06:48:56.606912,4.122830042
1776408536614604098,0.046,,,,2026-04-17 06:48:56.614604 UTC,2026-04-17 06:48:56.614604,4.130521832
1776408536622295888,0.051,,,,2026-04-17 06:48:56.622295 UTC,2026-04-17 06:48:56.622295,4.138213622
1776408536629987678,0.058,,,,2026-04-17 06:48:56.629987 UTC,2026-04-17 06:48:56.629987,4.145905412
1776408536637679468,0.066,,,,2026-04-17 06:48:56.637679 UTC,2026-04-17 06:48:56.637679,4.153597202
1776408536645371258,0.071,,,,2026-04-17 06:48:56.645371 UTC,2026-04-17 06:48:56.645371,4.161288992
1776408536653063048,0.076,,,,2026-04-17 06:48:56.653063 UTC,2026-04-17 06:48:56.653063,4.168980782
1776408536660754838,0.073,,,,2026-04-17 06:48:56.660754 UTC,2026-04-17 06:48:56.660754,4.176672572
1776408536668446628,0.056,,,,2026-04-17 06:48:56.668446 UTC,2026-04-17 06:48:56.668446,4.184364362
1776408536676138418,0.056,,,,2026-04-17 06:48:56.676138 UTC,2026-04-17 06:48:56.676138,4.192056152
1776408536683830208,0.085,,,,2026-04-17 06:48:56.683830 UTC,2026-04-17 06:48:56.683830,4.199747942
1776408536691521998,0.073,,,,2026-04-17 06:48:56.691521 UTC,2026-04-17 06:48:56.691521,4.207439732
1776408536699213788,0.049,,,,2026-04-17 06:48:56.699213 UTC,2026-04-17 06:48:56.699213,4.215131522
1776408536706905578,0.066,,,,2026-04-17 06:48:56.706905 UTC,2026-04-17 06:48:56.706905,4.222823312
1776408536714597368,0.076,,,,2026-04-17 06:48:56.714597 UTC,2026-04-17 06:48:56.714597,4.230515102
1776408536722289158,0.046,,,,2026-04-17 06:48:56.722289 UTC,2026-04-17 06:48:56.722289,4.238206892
1776408536729980948,0.026,,,,2026-04-17 06:48:56.729980 UTC,2026-04-17 06:48:56.729980,4.245898682
1776408536737672738,0.041,,,,2026-04-17 06:48:56.737672 UTC,2026-04-17 06:48:56.737672,4.253590472
1776408536745364528,0.049,,,,2026-04-17 06:48:56.745364 UTC,2026-04-17 06:48:56.745364,4.261282262
1776408536753056318,0.019,,,,2026-04-17 06:48:56.753056 UTC,2026-04-17 06:48:56.753056,4.268974052
1776408536760748108,0.017,,,,2026-04-17 06:48:56.760748 UTC,2026-04-17 06:48:56.760748,4.276665842
1776408536768439898,0.068,,,,2026-04-17 06:48:56.768439 UTC,2026-04-17 06:48:56.768439,4.284357632
1776408536776131688,0.071,,,,2026-04-17 06:48:56.776131 UTC,2026-04-17 06:48:56.776131,4.292049422
1776408536783823478,0.031,,,,2026-04-17 06:48:56.783823 UTC,2026-04-17 06:48:56.783823,4.299741212
1776408536791515268,0.046,,,,2026-04-17 06:48:56.791515 UTC,2026-04-17 06:48:56.791515,4.307433002
1776408536799207058,0.073,,,,2026-04-17 06:48:56.799207 UTC,2026-04-17 06:48:56.799207,4.315124792
1776408536806898848,0.058,,,,2026-04-17 06:48:56.806898 UTC,2026-04-17 06:48:56.806898,4.322816582
1776408536814590638,0.039,,,,2026-04-17 06:48:56.814590 UTC,2026-04-17 06:48:56.814590,4.330508372
1776408536822282428,0.041,,,,2026-04-17 06:48:56.822282 UTC,2026-04-17 06:48:56.822282,4.338200162
1776408536829974218,0.034,,,,2026-04-17 06:48:56.829974 UTC,2026-04-17 06:48:56.829974,4.345891952
1776408536837666008,0.024,,,,2026-04-17 06:48:56.837666 UTC,2026-04-17 06:48:56.837666,4.353583742
1776408536845357798,0.026,,,,2026-04-17 06:48:56.845357 UTC,2026-04-17 06:48:56.845357,4.361275532
1776408536853049588,0.034,,,,2026-04-17 06:48:56.853049 UTC,2026-04-17 06:48:56.853049,4.368967322
1776408536860741378,0.026,,,,2026-04-17 06:48:56.860741 UTC,2026-04-17 06:48:56.860741,4.376659112
1776408536868433168,0.022,,,,2026-04-17 06:48:56.868433 UTC,2026-04-17 06:48:56.868433,4.384350902
1776408536876124958,0.039,,,,2026-04-17 06:48:56.876124 UTC,2026-04-17 06:48:56.876124,4.392042692
1776408536883816748,0.051,,,,2026-04-17 06:48:56.883816 UTC,2026-04-17 06:48:56.883816,4.399734482
1776408536891508538,0.049,,,,2026-04-17 06:48:56.891508 UTC,2026-04-17 06:48:56.891508,4.407426272
1776408536899200328,0.051,,,,2026-04-17 06:48:56.899200 UTC,2026-04-17 06:48:56.899200,4.415118062
1776408536906892118,0.049,,,,2026-04-17 06:48:56.906892 UTC,2026-04-17 06:48:56.906892,4.422809852
1776408536914583908,0.041,,,,2026-04-17 06:48:56.914583 UTC,2026-04-17 06:48:56.914583,4.430501642
1776408536922275698,0.041,,,,2026-04-17 06:48:56.922275 UTC,2026-04-17 06:48:56.922275,4.438193432
1776408536929967488,0.066,,,,2026-04-17 06:48:56.929967 UTC,2026-04-17 06:48:56.929967,4.445885222
1776408536937659278,0.088,,,,2026-04-17 06:48:56.937659 UTC,2026-04-17 06:48:56.937659,4.453577012
1776408536945351068,0.09,,,,2026-04-17 06:48:56.945351 UTC,2026-04-17 06:48:56.945351,4.461268802
1776408536953042858,0.088,,,,2026-04-17 06:48:56.953042 UTC,2026-04-17 06:48:56.953042,4.468960592
1776408536960734648,0.088,,,,2026-04-17 06:48:56.960734 UTC,2026-04-17 06:48:56.960734,4.476652382
1776408536968426438,0.066,,775.0,,2026-04-17 06:48:56.968426 UTC,2026-04-17 06:48:56.968426,4.484344172
1776408536976118240,0.039,,,,2026-04-17 06:48:56.976118 UTC,2026-04-17 06:48:56.976118,4.492035974
1776408536983810030,0.044,,,,2026-04-17 06:48:56.983810 UTC,2026-04-17 06:48:56.983810,4.499727764
1776408536991501820,0.058,,,,2026-04-17 06:48:56.991501 UTC,2026-04-17 06:48:56.991501,4.507419554
1776408536999193610,0.051,,,,2026-04-17 06:48:56.999193 UTC,2026-04-17 06:48:56.999193,4.515111344
1776408537006885400,0.049,,,,2026-04-17 06:48:57.006885 UTC,2026-04-17 06:48:57.006885,4.522803134
1776408537014577190,0.056,,,,2026-04-17 06:48:57.014577 UTC,2026-04-17 06:48:57.014577,4.530494924
1776408537022268980,0.058,,,,2026-04-17 06:48:57.022268 UTC,2026-04-17 06:48:57.022268,4.538186714
1776408537029960770,0.061,,,,2026-04-17 06:48:57.029960 UTC,2026-04-17 06:48:57.029960,4.545878504
1776408537037652560,0.09,,,,2026-04-17 06:48:57.037652 UTC,2026-04-17 06:48:57.037652,4.553570294
1776408537045344350,0.306,,,,2026-04-17 06:48:57.045344 UTC,2026-04-17 06:48:57.045344,4.561262084
1776408537053036140,0.895,,,,2026-04-17 06:48:57.053036 UTC,2026-04-17 06:48:57.053036,4.568953874
1776408537060727930,1.447,,,,2026-04-17 06:48:57.060727 UTC,2026-04-17 06:48:57.060727,4.576645664
1776408537068419720,0.841,,,,2026-04-17 06:48:57.068419 UTC,2026-04-17 06:48:57.068419,4.584337454
1776408537076111510,-0.915,,,,2026-04-17 06:48:57.076111 UTC,2026-04-17 06:48:57.076111,4.592029244
1776408537083803300,-1.815,,,,2026-04-17 06:48:57.083803 UTC,2026-04-17 06:48:57.083803,4.599721034
1776408537091495090,-1.118,,,,2026-04-17 06:48:57.091495 UTC,2026-04-17 06:48:57.091495,4.607412824
1776408537099186880,-0.436,,,,2026-04-17 06:48:57.099186 UTC,2026-04-17 06:48:57.099186,4.615104614
1776408537106878670,-0.257,,,,2026-04-17 06:48:57.106878 UTC,2026-04-17 06:48:57.106878,4.622796404
1776408537114570460,0.063,,,,2026-04-17 06:48:57.114570 UTC,2026-04-17 06:48:57.114570,4.630488194
1776408537122262250,0.287,,,,2026-04-17 06:48:57.122262 UTC,2026-04-17 06:48:57.122262,4.638179984
1776408537129954040,0.211,,,,2026-04-17 06:48:57.129954 UTC,2026-04-17 06:48:57.129954,4.645871774
1776408537137645830,0.203,,,,2026-04-17 06:48:57.137645 UTC,2026-04-17 06:48:57.137645,4.653563564
1776408537145337620,0.284,,,,2026-04-17 06:48:57.145337 UTC,2026-04-17 06:48:57.145337,4.661255354
1776408537153029410,0.277,,,,2026-04-17 06:48:57.153029 UTC,2026-04-17 06:48:57.153029,4.668947144
1776408537160721200,0.262,,,,2026-04-17 06:48:57.160721 UTC,2026-04-17 06:48:57.160721,4.676638934
1776408537168412990,0.287,,,,2026-04-17 06:48:57.168412 UTC,2026-04-17 06:48:57.168412,4.684330724
1776408537176104780,0.287,,,,2026-04-17 06:48:57.176104 UTC,2026-04-17 06:48:57.176104,4.692022514
1776408537183796570,0.284,,,,2026-04-17 06:48:57.183796 UTC,2026-04-17 06:48:57.183796,4.699714304
1776408537191488360,0.299,,,,2026-04-17 06:48:57.191488 UTC,2026-04-17 06:48:57.191488,4.707406094
1776408537199180150,0.294,,,,2026-04-17 06:48:57.199180 UTC,2026-04-17 06:48:57.199180,4.715097884
1776408537206871940,0.284,,,,2026-04-17 06:48:57.206871 UTC,2026-04-17 06:48:57.206871,4.722789674
1776408537214563730,0.304,,,,2026-04-17 06:48:57.214563 UTC,2026-04-17 06:48:57.214563,4.730481464
1776408537222255520,0.333,,,,2026-04-17 06:48:57.222255 UTC,2026-04-17 06:48:57.222255,4.738173254
1776408537229947310,0.338,,,,2026-04-17 06:48:57.229947 UTC,2026-04-17 06:48:57.229947,4.745865044
1776408537237639100,0.343,,,,2026-04-17 06:48:57.237639 UTC,2026-04-17 06:48:57.237639,4.753556834
1776408537245330890,0.358,,,,2026-04-17 06:48:57.245330 UTC,2026-04-17 06:48:57.245330,4.761248624
1776408537253022680,0.37,,,,2026-04-17 06:48:57.253022 UTC,2026-04-17 06:48:57.253022,4.768940414
1776408537260714470,0.37,,,,2026-04-17 06:48:57.260714 UTC,2026-04-17 06:48:57.260714,4.776632204
1776408537268406260,0.372,,,,2026-04-17 06:48:57.268406 UTC,2026-04-17 06:48:57.268406,4.784323994
1776408537276098050,0.38,,,,2026-04-17 06:48:57.276098 UTC,2026-04-17 06:48:57.276098,4.792015784
1776408537283789840,0.375,,,,2026-04-17 06:48:57.283789 UTC,2026-04-17 06:48:57.283789,4.799707574
1776408537291481630,0.36,,,,2026-04-17 06:48:57.291481 UTC,2026-04-17 06:48:57.291481,4.807399364
1776408537299173420,0.348,,,,2026-04-17 06:48:57.299173 UTC,2026-04-17 06:48:57.299173,4.815091154
1776408537306865210,0.309,,,,2026-04-17 06:48:57.306865 UTC,2026-04-17 06:48:57.306865,4.822782944
1776408537314557000,0.26,,,,2026-04-17 06:48:57.314557 UTC,2026-04-17 06:48:57.314557,4.830474734
1776408537322248790,0.223,,,,2026-04-17 06:48:57.322248 UTC,2026-04-17 06:48:57.322248,4.838166524
1776408537329940580,0.176,,,,2026-04-17 06:48:57.329940 UTC,2026-04-17 06:48:57.329940,4.845858314
1776408537337632370,0.112,,,,2026-04-17 06:48:57.337632 UTC,2026-04-17 06:48:57.337632,4.853550104
1776408537345324160,0.066,,,,2026-04-17 06:48:57.345324 UTC,2026-04-17 06:48:57.345324,4.861241894
1776408537353015950,0.044,,,,2026-04-17 06:48:57.353015 UTC,2026-04-17 06:48:57.353015,4.868933684
1776408537360707740,0.024,,,,2026-04-17 06:48:57.360707 UTC,2026-04-17 06:48:57.360707,4.876625474
1776408537368399530,0.002,,,,2026-04-17 06:48:57.368399 UTC,2026-04-17 06:48:57.368399,4.884317264
1776408537376091320,-0.022,,,,2026-04-17 06:48:57.376091 UTC,2026-04-17 06:48:57.376091,4.892009054
1776408537383783110,-0.034,,,,2026-04-17 06:48:57.383783 UTC,2026-04-17 06:48:57.383783,4.899700844
1776408537391474900,-0.019,,,,2026-04-17 06:48:57.391474 UTC,2026-04-17 06:48:57.391474,4.907392634
1776408537399166690,-0.004,,,,2026-04-17 06:48:57.399166 UTC,2026-04-17 06:48:57.399166,4.915084424
1776408537406858480,-0.012,,,,2026-04-17 06:48:57.406858 UTC,2026-04-17 06:48:57.406858,4.922776214
1776408537414550270,-0.019,,,,2026-04-17 06:48:57.414550 UTC,2026-04-17 06:48:57.414550,4.930468004
1776408537422242060,-0.007,,,,2026-04-17 06:48:57.422242 UTC,2026-04-17 06:48:57.422242,4.938159794
1776408537429933850,0.014,,,,2026-04-17 06:48:57.429933 UTC,2026-04-17 06:48:57.429933,4.945851584
1776408537437625640,0.022,,,,2026-04-17 06:48:57.437625 UTC,2026-04-17 06:48:57.437625,4.953543374
1776408537445317430,0.014,,,,2026-04-17 06:48:57.445317 UTC,2026-04-17 06:48:57.445317,4.961235164
1776408537453009220,0.019,,,,2026-04-17 06:48:57.453009 UTC,2026-04-17 06:48:57.453009,4.968926954
1776408537460701010,0.034,,,,2026-04-17 06:48:57.460701 UTC,2026-04-17 06:48:57.460701,4.976618744
1776408537468392800,0.034,,,,2026-04-17 06:48:57.468392 UTC,2026-04-17 06:48:57.468392,4.984310534
1776408537476084590,0.034,,,,2026-04-17 06:48:57.476084 UTC,2026-04-17 06:48:57.476084,4.992002324
1776408537483776380,0.056,,,,2026-04-17 06:48:57.483776 UTC,2026-04-17 06:48:57.483776,4.999694114
1776408537491468170,0.061,,,,2026-04-17 06:48:57.491468 UTC,2026-04-17 06:48:57.491468,5.007385904
1776408537499159960,0.034,,,,2026-04-17 06:48:57.499159 UTC,2026-04-17 06:48:57.499159,5.015077694
1776408537506851750,0.014,,,,2026-04-17 06:48:57.506851 UTC,2026-04-17 06:48:57.506851,5.022769484
1776408537514543540,0.024,,,,2026-04-17 06:48:57.514543 UTC,2026-04-17 06:48:57.514543,5.030461274
1776408537522235330,0.041,,,,2026-04-17 06:48:57.522235 UTC,2026-04-17 06:48:57.522235,5.038153064
1776408537529927120,0.039,,,,2026-04-17 06:48:57.529927 UTC,2026-04-17 06:48:57.529927,5.045844854
1776408537537618922,0.024,76.0,,,2026-04-17 06:48:57.537618 UTC,2026-04-17 06:48:57.537618,5.053536656
1776408537545310712,0.014,,,,2026-04-17 06:48:57.545310 UTC,2026-04-17 06:48:57.545310,5.061228446
1776408537553002502,0.017,,,,2026-04-17 06:48:57.553002 UTC,2026-04-17 06:48:57.553002,5.068920236
1776408537560694292,0.024,,,,2026-04-17 06:48:57.560694 UTC,2026-04-17 06:48:57.560694,5.076612026
1776408537568386082,0.022,,,,2026-04-17 06:48:57.568386 UTC,2026-04-17 06:48:57.568386,5.084303816
1776408537576077872,0.017,,,,2026-04-17 06:48:57.576077 UTC,2026-04-17 06:48:57.576077,5.091995606
1776408537583769662,0.007,,,,2026-04-17 06:48:57.583769 UTC,2026-04-17 06:48:57.583769,5.099687396
1776408537591461452,-0.012,,,,2026-04-17 06:48:57.591461 UTC,2026-04-17 06:48:57.591461,5.107379186
1776408537599153242,-0.022,,,,2026-04-17 06:48:57.599153 UTC,2026-04-17 06:48:57.599153,5.115070976
1776408537606845032,-0.019,,,,2026-04-17 06:48:57.606845 UTC,2026-04-17 06:48:57.606845,5.122762766
1776408537614536822,-0.019,,,,2026-04-17 06:48:57.614536 UTC,2026-04-17 06:48:57.614536,5.130454556
1776408537622228612,-0.022,,,,2026-04-17 06:48:57.622228 UTC,2026-04-17 06:48:57.622228,5.138146346
1776408537629920402,-0.017,,,,2026-04-17 06:48:57.629920 UTC,2026-04-17 06:48:57.629920,5.145838136
1776408537637612192,-0.012,,,,2026-04-17 06:48:57.637612 UTC,2026-04-17 06:48:57.637612,5.153529926
1776408537645303982,-0.002,,,,2026-04-17 06:48:57.645303 UTC,2026-04-17 06:48:57.645303,5.161221716
1776408537652995772,0.009,,,,2026-04-17 06:48:57.652995 UTC,2026-04-17 06:48:57.652995,5.168913506
1776408537660687562,0.007,,,,2026-04-17 06:48:57.660687 UTC,2026-04-17 06:48:57.660687,5.176605296
1776408537668379352,0.007,,,,2026-04-17 06:48:57.668379 UTC,2026-04-17 06:48:57.668379,5.184297086
1776408537676071142,0.014,,,,2026-04-17 06:48:57.676071 UTC,2026-04-17 06:48:57.676071,5.191988876
1776408537683762932,0.014,,,,2026-04-17 06:48:57.683762 UTC,2026-04-17 06:48:57.683762,5.199680666
1776408537691454722,0.002,,,,2026-04-17 06:48:57.691454 UTC,2026-04-17 06:48:57.691454,5.207372456
1776408537699146512,0.009,,,,2026-04-17 06:48:57.699146 UTC,2026-04-17 06:48:57.699146,5.215064246
1776408537706838302,0.034,,,,2026-04-17 06:48:57.706838 UTC,2026-04-17 06:48:57.706838,5.222756036
1776408537714530092,0.051,,,,2026-04-17 06:48:57.714530 UTC,2026-04-17 06:48:57.714530,5.230447826
1776408537722221882,0.058,,,,2026-04-17 06:48:57.722221 UTC,2026-04-17 06:48:57.722221,5.238139616
1776408537729913672,0.061,,,,2026-04-17 06:48:57.729913 UTC,2026-04-17 06:48:57.729913,5.245831406
1776408537737605462,0.046,,,,2026-04-17 06:48:57.737605 UTC,2026-04-17 06:48:57.737605,5.253523196
1776408537745297252,0.029,,775.0,,2026-04-17 06:48:57.745297 UTC,2026-04-17 06:48:57.745297,5.261214986
1776408537752989042,0.019,,,,2026-04-17 06:48:57.752989 UTC,2026-04-17 06:48:57.752989,5.268906776
1776408537760680832,0.012,,,,2026-04-17 06:48:57.760680 UTC,2026-04-17 06:48:57.760680,5.276598566
1776408537768372622,0.012,,,,2026-04-17 06:48:57.768372 UTC,2026-04-17 06:48:57.768372,5.284290356
1776408537776064412,0.017,,,,2026-04-17 06:48:57.776064 UTC,2026-04-17 06:48:57.776064,5.291982146
1776408537783756202,0.026,,,,2026-04-17 06:48:57.783756 UTC,2026-04-17 06:48:57.783756,5.299673936
1776408537791447992,0.039,,,,2026-04-17 06:48:57.791447 UTC,2026-04-17 06:48:57.791447,5.307365726
1776408537799139782,0.039,,,,2026-04-17 06:48:57.799139 UTC,2026-04-17 06:48:57.799139,5.315057516
1776408537806831572,0.034,,,,2026-04-17 06:48:57.806831 UTC,2026-04-17 06:48:57.806831,5.322749306
1776408537814523362,0.152,,,,2026-04-17 06:48:57.814523 UTC,2026-04-17 06:48:57.814523,5.330441096
1776408537822215152,0.618,,,,2026-04-17 06:48:57.822215 UTC,2026-04-17 06:48:57.822215,5.338132886
1776408537829906942,1.342,,,,2026-04-17 06:48:57.829906 UTC,2026-04-17 06:48:57.829906,5.345824676
1776408537837598732,1.327,,,,2026-04-17 06:48:57.837598 UTC,2026-04-17 06:48:57.837598,5.353516466
1776408537845290522,-0.233,,,,2026-04-17 06:48:57.845290 UTC,2026-04-17 06:48:57.845290,5.361208256
1776408537852982312,-1.82,,,,2026-04-17 06:48:57.852982 UTC,2026-04-17 06:48:57.852982,5.368900046
1776408537860674102,-1.612,,,,2026-04-17 06:48:57.860674 UTC,2026-04-17 06:48:57.860674,5.376591836
1776408537868365892,-0.682,,,,2026-04-17 06:48:57.868365 UTC,2026-04-17 06:48:57.868365,5.384283626
1776408537876057682,-0.38,,,,2026-04-17 06:48:57.876057 UTC,2026-04-17 06:48:57.876057,5.391975416
1776408537883749472,-0.13,,,,2026-04-17 06:48:57.883749 UTC,2026-04-17 06:48:57.883749,5.399667206
1776408537891441262,0.245,,,,2026-04-17 06:48:57.891441 UTC,2026-04-17 06:48:57.891441,5.407358996
1776408537899133052,0.26,,,,2026-04-17 06:48:57.899133 UTC,2026-04-17 06:48:57.899133,5.415050786
1776408537906824842,0.171,,,,2026-04-17 06:48:57.906824 UTC,2026-04-17 06:48:57.906824,5.422742576
1776408537914516632,0.247,,,,2026-04-17 06:48:57.914516 UTC,2026-04-17 06:48:57.914516,5.430434366
1776408537922208422,0.277,,,,2026-04-17 06:48:57.922208 UTC,2026-04-17 06:48:57.922208,5.438126156
1776408537929900212,0.23,,,,2026-04-17 06:48:57.929900 UTC,2026-04-17 06:48:57.929900,5.445817946
1776408537937592002,0.245,,,,2026-04-17 06:48:57.937592 UTC,2026-04-17 06:48:57.937592,5.453509736
1776408537945283792,0.272,,,,2026-04-17 06:48:57.945283 UTC,2026-04-17 06:48:57.945283,5.461201526
1776408537952975582,0.264,,,,2026-04-17 06:48:57.952975 UTC,2026-04-17 06:48:57.952975,5.468893316
1776408537960667372,0.274,,,,2026-04-17 06:48:57.960667 UTC,2026-04-17 06:48:57.960667,5.476585106
1776408537968359162,0.294,,,,2026-04-17 06:48:57.968359 UTC,2026-04-17 06:48:57.968359,5.484276896
1776408537976050952,0.289,,,,2026-04-17 06:48:57.976050 UTC,2026-04-17 06:48:57.976050,5.491968686
1776408537983742742,0.289,,,,2026-04-17 06:48:57.983742 UTC,2026-04-17 06:48:57.983742,5.499660476
1776408537991434532,0.309,,,,2026-04-17 06:48:57.991434 UTC,2026-04-17 06:48:57.991434,5.507352266
1776408537999126322,0.323,,,,2026-04-17 06:48:57.999126 UTC,2026-04-17 06:48:57.999126,5.515044056
1776408538006818112,0.331,,,,2026-04-17 06:48:58.006818 UTC,2026-04-17 06:48:58.006818,5.522735846
1776408538014509902,0.343,,,,2026-04-17 06:48:58.014509 UTC,2026-04-17 06:48:58.014509,5.530427636
1776408538022201692,0.365,,,,2026-04-17 06:48:58.022201 UTC,2026-04-17 06:48:58.022201,5.538119426
1776408538029893482,0.38,,,,2026-04-17 06:48:58.029893 UTC,2026-04-17 06:48:58.029893,5.545811216
1776408538037585272,0.38,,,,2026-04-17 06:48:58.037585 UTC,2026-04-17 06:48:58.037585,5.553503006
1776408538045277062,0.39,,,,2026-04-17 06:48:58.045277 UTC,2026-04-17 06:48:58.045277,5.561194796
1776408538052968852,0.392,,,,2026-04-17 06:48:58.052968 UTC,2026-04-17 06:48:58.052968,5.568886586
1776408538060660642,0.37,,,,2026-04-17 06:48:58.060660 UTC,2026-04-17 06:48:58.060660,5.576578376
1776408538068352432,0.35,,,,2026-04-17 06:48:58.068352 UTC,2026-04-17 06:48:58.068352,5.584270166
1776408538076044222,0.326,,,,2026-04-17 06:48:58.076044 UTC,2026-04-17 06:48:58.076044,5.591961956
1776408538083736012,0.284,,,,2026-04-17 06:48:58.083736 UTC,2026-04-17 06:48:58.083736,5.599653746
1776408538091427802,0.245,,,,2026-04-17 06:48:58.091427 UTC,2026-04-17 06:48:58.091427,5.607345536
1776408538099119604,0.198,,,,2026-04-17 06:48:58.099119 UTC,2026-04-17 06:48:58.099119,5.615037338
1776408538106811394,0.142,,,,2026-04-17 06:48:58.106811 UTC,2026-04-17 06:48:58.106811,5.622729128
1776408538114503184,0.103,,,,2026-04-17 06:48:58.114503 UTC,2026-04-17 06:48:58.114503,5.630420918
1776408538122194974,0.073,,,,2026-04-17 06:48:58.122194 UTC,2026-04-17 06:48:58.122194,5.638112708
1776408538129886764,0.036,,,,2026-04-17 06:48:58.129886 UTC,2026-04-17 06:48:58.129886,5.645804498
1776408538137578554,0.004,,,,2026-04-17 06:48:58.137578 UTC,2026-04-17 06:48:58.137578,5.653496288
1776408538145270344,-0.009,,,,2026-04-17 06:48:58.145270 UTC,2026-04-17 06:48:58.145270,5.661188078
1776408538152962134,-0.012,,,,2026-04-17 06:48:58.152962 UTC,2026-04-17 06:48:58.152962,5.668879868
1776408538160653924,-0.019,,,,2026-04-17 06:48:58.160653 UTC,2026-04-17 06:48:58.160653,5.676571658
1776408538168345714,-0.024,,,,2026-04-17 06:48:58.168345 UTC,2026-04-17 06:48:58.168345,5.684263448
1776408538176037504,-0.022,,,,2026-04-17 06:48:58.176037 UTC,2026-04-17 06:48:58.176037,5.691955238
1776408538183729294,-0.014,,,,2026-04-17 06:48:58.183729 UTC,2026-04-17 06:48:58.183729,5.699647028
1776408538191421084,-0.014,,,,2026-04-17 06:48:58.191421 UTC,2026-04-17 06:48:58.191421,5.707338818
1776408538199112874,-0.017,,,,2026-04-17 06:48:58.199112 UTC,2026-04-17 06:48:58.199112,5.715030608
1776408538206804664,-0.002,,,,2026-04-17 06:48:58.206804 UTC,2026-04-17 06:48:58.206804,5.722722398
1776408538214496454,0.014,,,,2026-04-17 06:48:58.214496 UTC,2026-04-17 06:48:58.214496,5.730414188
1776408538222188244,0.019,,,,2026-04-17 06:48:58.222188 UTC,2026-04-17 06:48:58.222188,5.738105978
1776408538229880034,0.029,,,,2026-04-17 06:48:58.229880 UTC,2026-04-17 06:48:58.229880,5.745797768
1776408538237571824,0.044,,,,2026-04-17 06:48:58.237571 UTC,2026-04-17 06:48:58.237571,5.753489558
1776408538245263614,0.044,,,,2026-04-17 06:48:58.245263 UTC,2026-04-17 06:48:58.245263,5.761181348
1776408538252955404,0.044,,,,2026-04-17 06:48:58.252955 UTC,2026-04-17 06:48:58.252955,5.768873138
1776408538260647194,0.041,,,,2026-04-17 06:48:58.260647 UTC,2026-04-17 06:48:58.260647,5.776564928
1776408538268338984,0.036,,,,2026-04-17 06:48:58.268338 UTC,2026-04-17 06:48:58.268338,5.784256718
1776408538276030774,0.036,,,,2026-04-17 06:48:58.276030 UTC,2026-04-17 06:48:58.276030,5.791948508
1776408538283722564,0.031,,,,2026-04-17 06:48:58.283722 UTC,2026-04-17 06:48:58.283722,5.799640298
1776408538291414354,0.019,,,,2026-04-17 06:48:58.291414 UTC,2026-04-17 06:48:58.291414,5.807332088
1776408538299106144,0.022,,,,2026-04-17 06:48:58.299106 UTC,2026-04-17 06:48:58.299106,5.815023878
1776408538306797934,0.036,,,,2026-04-17 06:48:58.306797 UTC,2026-04-17 06:48:58.306797,5.822715668
1776408538314489724,0.034,,,,2026-04-17 06:48:58.314489 UTC,2026-04-17 06:48:58.314489,5.830407458
1776408538322181514,0.019,,,,2026-04-17 06:48:58.322181 UTC,2026-04-17 06:48:58.322181,5.838099248
1776408538329873304,0.009,,,,2026-04-17 06:48:58.329873 UTC,2026-04-17 06:48:58.329873,5.845791038
1776408538337565094,0.009,,,,2026-04-17 06:48:58.337565 UTC,2026-04-17 06:48:58.337565,5.853482828
1776408538345256884,0.002,,,,2026-04-17 06:48:58.345256 UTC,2026-04-17 06:48:58.345256,5.861174618
1776408538352948674,-0.009,,,,2026-04-17 06:48:58.352948 UTC,2026-04-17 06:48:58.352948,5.868866408
1776408538360640464,-0.012,,,,2026-04-17 06:48:58.360640 UTC,2026-04-17 06:48:58.360640,5.876558198
1776408538368332254,-0.019,,,,2026-04-17 06:48:58.368332 UTC,2026-04-17 06:48:58.368332,5.884249988
1776408538376024044,-0.024,,,,2026-04-17 06:48:58.376024 UTC,2026-04-17 06:48:58.376024,5.891941778
1776408538383715834,-0.004,,,,2026-04-17 06:48:58.383715 UTC,2026-04-17 06:48:58.383715,5.899633568
1776408538391407624,0.004,,,,2026-04-17 06:48:58.391407 UTC,2026-04-17 06:48:58.391407,5.907325358
1776408538399099414,-0.002,,,,2026-04-17 06:48:58.399099 UTC,2026-04-17 06:48:58.399099,5.915017148
1776408538406791204,-0.002,,,,2026-04-17 06:48:58.406791 UTC,2026-04-17 06:48:58.406791,5.922708938
1776408538414482994,0.007,,,,2026-04-17 06:48:58.414482 UTC,2026-04-17 06:48:58.414482,5.930400728
1776408538422174784,0.002,,,,2026-04-17 06:48:58.422174 UTC,2026-04-17 06:48:58.422174,5.938092518
1776408538429866574,-0.004,,,,2026-04-17 06:48:58.429866 UTC,2026-04-17 06:48:58.429866,5.945784308
1776408538437558364,0.0,,,,2026-04-17 06:48:58.437558 UTC,2026-04-17 06:48:58.437558,5.953476098
1776408538445250154,0.009,,,,2026-04-17 06:48:58.445250 UTC,2026-04-17 06:48:58.445250,5.961167888
1776408538452941944,0.014,,,,2026-04-17 06:48:58.452941 UTC,2026-04-17 06:48:58.452941,5.968859678
1776408538460633734,0.026,,,,2026-04-17 06:48:58.460633 UTC,2026-04-17 06:48:58.460633,5.976551468
1776408538468325524,0.034,,725.0,,2026-04-17 06:48:58.468325 UTC,2026-04-17 06:48:58.468325,5.984243258
1776408538476017314,0.026,,,,2026-04-17 06:48:58.476017 UTC,2026-04-17 06:48:58.476017,5.991935048
1776408538483709104,0.019,,,,2026-04-17 06:48:58.483709 UTC,2026-04-17 06:48:58.483709,5.999626838
1776408538491400894,0.036,,,,2026-04-17 06:48:58.491400 UTC,2026-04-17 06:48:58.491400,6.007318628
1776408538499092684,0.063,,,,2026-04-17 06:48:58.499092 UTC,2026-04-17 06:48:58.499092,6.015010418
1776408538506784474,0.073,,,,2026-04-17 06:48:58.506784 UTC,2026-04-17 06:48:58.506784,6.022702208
1776408538514476264,0.073,,,,2026-04-17 06:48:58.514476 UTC,2026-04-17 06:48:58.514476,6.030393998
1776408538522168054,0.076,,,,2026-04-17 06:48:58.522168 UTC,2026-04-17 06:48:58.522168,6.038085788
1776408538529859844,0.078,,,,2026-04-17 06:48:58.529859 UTC,2026-04-17 06:48:58.529859,6.045777578
1776408538537551634,0.068,,,,2026-04-17 06:48:58.537551 UTC,2026-04-17 06:48:58.537551,6.053469368
1776408538545243424,0.049,,,,2026-04-17 06:48:58.545243 UTC,2026-04-17 06:48:58.545243,6.061161158
1776408538552935214,0.026,,,,2026-04-17 06:48:58.552935 UTC,2026-04-17 06:48:58.552935,6.068852948
1776408538560627004,0.026,,,,2026-04-17 06:48:58.560627 UTC,2026-04-17 06:48:58.560627,6.076544738
1776408538568318794,0.051,,,,2026-04-17 06:48:58.568318 UTC,2026-04-17 06:48:58.568318,6.084236528
1776408538576010584,0.061,,,,2026-04-17 06:48:58.576010 UTC,2026-04-17 06:48:58.576010,6.091928318
1776408538583702374,0.051,,,,2026-04-17 06:48:58.583702 UTC,2026-04-17 06:48:58.583702,6.099620108
1776408538591394164,0.053,,,,2026-04-17 06:48:58.591394 UTC,2026-04-17 06:48:58.591394,6.107311898
1776408538599085954,0.056,,,,2026-04-17 06:48:58.599085 UTC,2026-04-17 06:48:58.599085,6.115003688
1776408538606777744,0.132,,,,2026-04-17 06:48:58.606777 UTC,2026-04-17 06:48:58.606777,6.122695478
1776408538614469534,0.537,,,,2026-04-17 06:48:58.614469 UTC,2026-04-17 06:48:58.614469,6.130387268
1776408538622161324,1.288,,,,2026-04-17 06:48:58.622161 UTC,2026-04-17 06:48:58.622161,6.138079058
1776408538629853114,1.486,,,,2026-04-17 06:48:58.629853 UTC,2026-04-17 06:48:58.629853,6.145770848
1776408538637544904,0.149,,,,2026-04-17 06:48:58.637544 UTC,2026-04-17 06:48:58.637544,6.153462638
1776408538645236694,-1.604,,,,2026-04-17 06:48:58.645236 UTC,2026-04-17 06:48:58.645236,6.161154428
1776408538652928484,-1.719,,,,2026-04-17 06:48:58.652928 UTC,2026-04-17 06:48:58.652928,6.168846218
1776408538660620286,-0.745,76.0,,,2026-04-17 06:48:58.660620 UTC,2026-04-17 06:48:58.660620,6.17653802
1776408538668312076,-0.299,,,,2026-04-17 06:48:58.668312 UTC,2026-04-17 06:48:58.668312,6.18422981
1776408538676003866,-0.105,,,,2026-04-17 06:48:58.676003 UTC,2026-04-17 06:48:58.676003,6.1919216
1776408538683695656,0.225,,,,2026-04-17 06:48:58.683695 UTC,2026-04-17 06:48:58.683695,6.19961339
1776408538691387446,0.274,,,,2026-04-17 06:48:58.691387 UTC,2026-04-17 06:48:58.691387,6.20730518
1776408538699079236,0.188,,,,2026-04-17 06:48:58.699079 UTC,2026-04-17 06:48:58.699079,6.21499697
1776408538706771026,0.255,,,,2026-04-17 06:48:58.706771 UTC,2026-04-17 06:48:58.706771,6.22268876
1776408538714462816,0.284,,,,2026-04-17 06:48:58.714462 UTC,2026-04-17 06:48:58.714462,6.23038055
1776408538722154606,0.242,,,,2026-04-17 06:48:58.722154 UTC,2026-04-17 06:48:58.722154,6.23807234
1776408538729846396,0.255,,,,2026-04-17 06:48:58.729846 UTC,2026-04-17 06:48:58.729846,6.24576413
1776408538737538186,0.282,,,,2026-04-17 06:48:58.737538 UTC,2026-04-17 06:48:58.737538,6.25345592
1776408538745229976,0.279,,,,2026-04-17 06:48:58.745229 UTC,2026-04-17 06:48:58.745229,6.26114771
1776408538752921766,0.282,,,,2026-04-17 06:48:58.752921 UTC,2026-04-17 06:48:58.752921,6.2688395
1776408538760613556,0.282,,,,2026-04-17 06:48:58.760613 UTC,2026-04-17 06:48:58.760613,6.27653129
1776408538768305346,0.284,,,,2026-04-17 06:48:58.768305 UTC,2026-04-17 06:48:58.768305,6.28422308
1776408538775997136,0.311,,,,2026-04-17 06:48:58.775997 UTC,2026-04-17 06:48:58.775997,6.29191487
1776408538783688926,0.328,,,,2026-04-17 06:48:58.783688 UTC,2026-04-17 06:48:58.783688,6.29960666
1776408538791380716,0.321,,,,2026-04-17 06:48:58.791380 UTC,2026-04-17 06:48:58.791380,6.30729845
1776408538799072506,0.333,,,,2026-04-17 06:48:58.799072 UTC,2026-04-17 06:48:58.799072,6.31499024
1776408538806764296,0.368,,,,2026-04-17 06:48:58.806764 UTC,2026-04-17 06:48:58.806764,6.32268203
1776408538814456086,0.377,,,,2026-04-17 06:48:58.814456 UTC,2026-04-17 06:48:58.814456,6.33037382
1776408538822147876,0.375,,,,2026-04-17 06:48:58.822147 UTC,2026-04-17 06:48:58.822147,6.33806561
1776408538829839666,0.387,,,,2026-04-17 06:48:58.829839 UTC,2026-04-17 06:48:58.829839,6.3457574
1776408538837531456,0.392,,,,2026-04-17 06:48:58.837531 UTC,2026-04-17 06:48:58.837531,6.35344919
1776408538845223246,0.385,,,,2026-04-17 06:48:58.845223 UTC,2026-04-17 06:48:58.845223,6.36114098
1776408538852915036,0.368,,,,2026-04-17 06:48:58.852915 UTC,2026-04-17 06:48:58.852915,6.36883277
1776408538860606826,0.338,,,,2026-04-17 06:48:58.860606 UTC,2026-04-17 06:48:58.860606,6.37652456
1776408538868298616,0.306,,,,2026-04-17 06:48:58.868298 UTC,2026-04-17 06:48:58.868298,6.38421635
1776408538875990406,0.287,,,,2026-04-17 06:48:58.875990 UTC,2026-04-17 06:48:58.875990,6.39190814
1776408538883682196,0.262,,,,2026-04-17 06:48:58.883682 UTC,2026-04-17 06:48:58.883682,6.39959993
1776408538891373986,0.213,,,,2026-04-17 06:48:58.891373 UTC,2026-04-17 06:48:58.891373,6.40729172
1776408538899065776,0.174,,,,2026-04-17 06:48:58.899065 UTC,2026-04-17 06:48:58.899065,6.41498351
1776408538906757566,0.147,,,,2026-04-17 06:48:58.906757 UTC,2026-04-17 06:48:58.906757,6.4226753
1776408538914449356,0.095,,,,2026-04-17 06:48:58.914449 UTC,2026-04-17 06:48:58.914449,6.43036709
1776408538922141146,0.044,,,,2026-04-17 06:48:58.922141 UTC,2026-04-17 06:48:58.922141,6.43805888
1776408538929832936,0.019,,,,2026-04-17 06:48:58.929832 UTC,2026-04-17 06:48:58.929832,6.44575067
1776408538937524726,0.004,,,,2026-04-17 06:48:58.937524 UTC,2026-04-17 06:48:58.937524,6.45344246
1776408538945216516,-0.009,,,,2026-04-17 06:48:58.945216 UTC,2026-04-17 06:48:58.945216,6.46113425
1776408538952908306,-0.031,,,,2026-04-17 06:48:58.952908 UTC,2026-04-17 06:48:58.952908,6.46882604
1776408538960600096,-0.046,,,,2026-04-17 06:48:58.960600 UTC,2026-04-17 06:48:58.960600,6.47651783
1776408538968291886,-0.019,,,,2026-04-17 06:48:58.968291 UTC,2026-04-17 06:48:58.968291,6.48420962
1776408538975983676,0.014,,,,2026-04-17 06:48:58.975983 UTC,2026-04-17 06:48:58.975983,6.49190141
1776408538983675466,0.009,,,,2026-04-17 06:48:58.983675 UTC,2026-04-17 06:48:58.983675,6.4995932
1776408538991367256,0.009,,,,2026-04-17 06:48:58.991367 UTC,2026-04-17 06:48:58.991367,6.50728499
1776408538999059046,0.022,,,,2026-04-17 06:48:58.999059 UTC,2026-04-17 06:48:58.999059,6.51497678
1776408539006750836,0.022,,,,2026-04-17 06:48:59.006750 UTC,2026-04-17 06:48:59.006750,6.52266857
1776408539014442626,0.022,,,,2026-04-17 06:48:59.014442 UTC,2026-04-17 06:48:59.014442,6.53036036
1776408539022134416,0.029,,,,2026-04-17 06:48:59.022134 UTC,2026-04-17 06:48:59.022134,6.53805215
1776408539029826206,0.031,,,,2026-04-17 06:48:59.029826 UTC,2026-04-17 06:48:59.029826,6.54574394
1776408539037517996,0.051,,,,2026-04-17 06:48:59.037517 UTC,2026-04-17 06:48:59.037517,6.55343573
1776408539045209786,0.066,,,,2026-04-17 06:48:59.045209 UTC,2026-04-17 06:48:59.045209,6.56112752
1776408539052901576,0.049,,,,2026-04-17 06:48:59.052901 UTC,2026-04-17 06:48:59.052901,6.56881931
1776408539060593366,0.036,,,,2026-04-17 06:48:59.060593 UTC,2026-04-17 06:48:59.060593,6.5765111
1776408539068285156,0.049,,,,2026-04-17 06:48:59.068285 UTC,2026-04-17 06:48:59.068285,6.58420289
1776408539075976946,0.049,,,,2026-04-17 06:48:59.075976 UTC,2026-04-17 06:48:59.075976,6.59189468
1776408539083668736,0.034,,,,2026-04-17 06:48:59.083668 UTC,2026-04-17 06:48:59.083668,6.59958647
1776408539091360526,0.041,,,,2026-04-17 06:48:59.091360 UTC,2026-04-17 06:48:59.091360,6.60727826
1776408539099052316,0.044,,,,2026-04-17 06:48:59.099052 UTC,2026-04-17 06:48:59.099052,6.61497005
1776408539106744106,0.017,,,,2026-04-17 06:48:59.106744 UTC,2026-04-17 06:48:59.106744,6.62266184
1776408539114435896,0.012,,,,2026-04-17 06:48:59.114435 UTC,2026-04-17 06:48:59.114435,6.63035363
1776408539122127686,0.034,,,,2026-04-17 06:48:59.122127 UTC,2026-04-17 06:48:59.122127,6.63804542
1776408539129819476,0.036,,,,2026-04-17 06:48:59.129819 UTC,2026-04-17 06:48:59.129819,6.64573721
1776408539137511266,0.017,,,,2026-04-17 06:48:59.137511 UTC,2026-04-17 06:48:59.137511,6.653429
1776408539145203056,0.019,,,,2026-04-17 06:48:59.145203 UTC,2026-04-17 06:48:59.145203,6.66112079
1776408539152894846,0.026,,,,2026-04-17 06:48:59.152894 UTC,2026-04-17 06:48:59.152894,6.66881258
1776408539160586636,0.017,,,,2026-04-17 06:48:59.160586 UTC,2026-04-17 06:48:59.160586,6.67650437
1776408539168278426,0.004,,,,2026-04-17 06:48:59.168278 UTC,2026-04-17 06:48:59.168278,6.68419616
1776408539175970216,0.002,,,,2026-04-17 06:48:59.175970 UTC,2026-04-17 06:48:59.175970,6.69188795
1776408539183662006,0.017,,,,2026-04-17 06:48:59.183662 UTC,2026-04-17 06:48:59.183662,6.69957974
1776408539191353796,0.039,,,,2026-04-17 06:48:59.191353 UTC,2026-04-17 06:48:59.191353,6.70727153
1776408539199045586,0.036,,,,2026-04-17 06:48:59.199045 UTC,2026-04-17 06:48:59.199045,6.71496332
1776408539206737376,0.026,,,,2026-04-17 06:48:59.206737 UTC,2026-04-17 06:48:59.206737,6.72265511
1776408539214429166,0.031,,,,2026-04-17 06:48:59.214429 UTC,2026-04-17 06:48:59.214429,6.7303469
1776408539222120968,0.034,,759.0,,2026-04-17 06:48:59.222120 UTC,2026-04-17 06:48:59.222120,6.738038702
1776408539229812758,0.031,,,,2026-04-17 06:48:59.229812 UTC,2026-04-17 06:48:59.229812,6.745730492
1776408539237504548,0.031,,,,2026-04-17 06:48:59.237504 UTC,2026-04-17 06:48:59.237504,6.753422282
1776408539245196338,0.044,,,,2026-04-17 06:48:59.245196 UTC,2026-04-17 06:48:59.245196,6.761114072
1776408539252888128,0.053,,,,2026-04-17 06:48:59.252888 UTC,2026-04-17 06:48:59.252888,6.768805862
1776408539260579918,0.051,,,,2026-04-17 06:48:59.260579 UTC,2026-04-17 06:48:59.260579,6.776497652
1776408539268271708,0.049,,,,2026-04-17 06:48:59.268271 UTC,2026-04-17 06:48:59.268271,6.784189442
1776408539275963498,0.051,,,,2026-04-17 06:48:59.275963 UTC,2026-04-17 06:48:59.275963,6.791881232
1776408539283655288,0.063,,,,2026-04-17 06:48:59.283655 UTC,2026-04-17 06:48:59.283655,6.799573022
1776408539291347078,0.056,,,,2026-04-17 06:48:59.291347 UTC,2026-04-17 06:48:59.291347,6.807264812
1776408539299038868,0.031,,,,2026-04-17 06:48:59.299038 UTC,2026-04-17 06:48:59.299038,6.814956602
1776408539306730658,0.039,,,,2026-04-17 06:48:59.306730 UTC,2026-04-17 06:48:59.306730,6.822648392
1776408539314422448,0.063,,,,2026-04-17 06:48:59.314422 UTC,2026-04-17 06:48:59.314422,6.830340182
1776408539322114238,0.063,,,,2026-04-17 06:48:59.322114 UTC,2026-04-17 06:48:59.322114,6.838031972
1776408539329806028,0.061,,,,2026-04-17 06:48:59.329806 UTC,2026-04-17 06:48:59.329806,6.845723762
1776408539337497818,0.071,,,,2026-04-17 06:48:59.337497 UTC,2026-04-17 06:48:59.337497,6.853415552
1776408539345189608,0.076,,,,2026-04-17 06:48:59.345189 UTC,2026-04-17 06:48:59.345189,6.861107342
1776408539352881398,0.061,,,,2026-04-17 06:48:59.352881 UTC,2026-04-17 06:48:59.352881,6.868799132
1776408539360573188,0.044,,,,2026-04-17 06:48:59.360573 UTC,2026-04-17 06:48:59.360573,6.876490922
1776408539368264978,0.051,,,,2026-04-17 06:48:59.368264 UTC,2026-04-17 06:48:59.368264,6.884182712
1776408539375956768,0.073,,,,2026-04-17 06:48:59.375956 UTC,2026-04-17 06:48:59.375956,6.891874502
1776408539383648558,0.09,,,,2026-04-17 06:48:59.383648 UTC,2026-04-17 06:48:59.383648,6.899566292
1776408539391340348,0.103,,,,2026-04-17 06:48:59.391340 UTC,2026-04-17 06:48:59.391340,6.907258082
1776408539399032138,0.112,,,,2026-04-17 06:48:59.399032 UTC,2026-04-17 06:48:59.399032,6.914949872
1776408539406723928,0.095,,,,2026-04-17 06:48:59.406723 UTC,2026-04-17 06:48:59.406723,6.922641662
1776408539414415718,0.056,,,,2026-04-17 06:48:59.414415 UTC,2026-04-17 06:48:59.414415,6.930333452
1776408539422107508,0.049,,,,2026-04-17 06:48:59.422107 UTC,2026-04-17 06:48:59.422107,6.938025242
1776408539429799298,0.066,,,,2026-04-17 06:48:59.429799 UTC,2026-04-17 06:48:59.429799,6.945717032
1776408539437491088,0.056,,,,2026-04-17 06:48:59.437491 UTC,2026-04-17 06:48:59.437491,6.953408822
1776408539445182878,0.036,,,,2026-04-17 06:48:59.445182 UTC,2026-04-17 06:48:59.445182,6.961100612
1776408539452874668,0.041,,,,2026-04-17 06:48:59.452874 UTC,2026-04-17 06:48:59.452874,6.968792402
1776408539460566458,0.051,,,,2026-04-17 06:48:59.460566 UTC,2026-04-17 06:48:59.460566,6.976484192
1776408539468258248,0.071,,,,2026-04-17 06:48:59.468258 UTC,2026-04-17 06:48:59.468258,6.984175982
1776408539475950038,0.083,,,,2026-04-17 06:48:59.475950 UTC,2026-04-17 06:48:59.475950,6.991867772
1776408539483641828,0.117,,,,2026-04-17 06:48:59.483641 UTC,2026-04-17 06:48:59.483641,6.999559562
1776408539491333618,0.409,,,,2026-04-17 06:48:59.491333 UTC,2026-04-17 06:48:59.491333,7.007251352
1776408539499025408,1.099,,,,2026-04-17 06:48:59.499025 UTC,2026-04-17 06:48:59.499025,7.014943142
1776408539506717198,1.499,,,,2026-04-17 06:48:59.506717 UTC,2026-04-17 06:48:59.506717,7.022634932
1776408539514408988,0.527,,,,2026-04-17 06:48:59.514408 UTC,2026-04-17 06:48:59.514408,7.030326722
1776408539522100778,-1.234,,,,2026-04-17 06:48:59.522100 UTC,2026-04-17 06:48:59.522100,7.038018512
1776408539529792568,-1.734,,,,2026-04-17 06:48:59.529792 UTC,2026-04-17 06:48:59.529792,7.045710302
1776408539537484358,-0.885,,,,2026-04-17 06:48:59.537484 UTC,2026-04-17 06:48:59.537484,7.053402092
1776408539545176148,-0.336,,,,2026-04-17 06:48:59.545176 UTC,2026-04-17 06:48:59.545176,7.061093882
1776408539552867938,-0.161,,,,2026-04-17 06:48:59.552867 UTC,2026-04-17 06:48:59.552867,7.068785672
1776408539560559728,0.169,,,,2026-04-17 06:48:59.560559 UTC,2026-04-17 06:48:59.560559,7.076477462
1776408539568251518,0.287,,,,2026-04-17 06:48:59.568251 UTC,2026-04-17 06:48:59.568251,7.084169252
1776408539575943308,0.193,,,,2026-04-17 06:48:59.575943 UTC,2026-04-17 06:48:59.575943,7.091861042
1776408539583635098,0.24,,,,2026-04-17 06:48:59.583635 UTC,2026-04-17 06:48:59.583635,7.099552832
1776408539591326888,0.301,,,,2026-04-17 06:48:59.591326 UTC,2026-04-17 06:48:59.591326,7.107244622
1776408539599018678,0.267,,,,2026-04-17 06:48:59.599018 UTC,2026-04-17 06:48:59.599018,7.114936412
1776408539606710468,0.26,,,,2026-04-17 06:48:59.606710 UTC,2026-04-17 06:48:59.606710,7.122628202
1776408539614402258,0.282,,,,2026-04-17 06:48:59.614402 UTC,2026-04-17 06:48:59.614402,7.130319992
1776408539622094048,0.279,,,,2026-04-17 06:48:59.622094 UTC,2026-04-17 06:48:59.622094,7.138011782
1776408539629785838,0.282,,,,2026-04-17 06:48:59.629785 UTC,2026-04-17 06:48:59.629785,7.145703572
1776408539637477628,0.299,,,,2026-04-17 06:48:59.637477 UTC,2026-04-17 06:48:59.637477,7.153395362
1776408539645169418,0.314,,,,2026-04-17 06:48:59.645169 UTC,2026-04-17 06:48:59.645169,7.161087152
1776408539652861208,0.316,,,,2026-04-17 06:48:59.652861 UTC,2026-04-17 06:48:59.652861,7.168778942
1776408539660552998,0.311,,,,2026-04-17 06:48:59.660552 UTC,2026-04-17 06:48:59.660552,7.176470732
1776408539668244788,0.316,,,,2026-04-17 06:48:59.668244 UTC,2026-04-17 06:48:59.668244,7.184162522
1776408539675936578,0.321,,,,2026-04-17 06:48:59.675936 UTC,2026-04-17 06:48:59.675936,7.191854312
1776408539683628368,0.331,,,,2026-04-17 06:48:59.683628 UTC,2026-04-17 06:48:59.683628,7.199546102
1776408539691320158,0.345,,,,2026-04-17 06:48:59.691320 UTC,2026-04-17 06:48:59.691320,7.207237892
1776408539699011948,0.353,,,,2026-04-17 06:48:59.699011 UTC,2026-04-17 06:48:59.699011,7.214929682
1776408539706703738,0.37,,,,2026-04-17 06:48:59.706703 UTC,2026-04-17 06:48:59.706703,7.222621472
1776408539714395528,0.385,,,,2026-04-17 06:48:59.714395 UTC,2026-04-17 06:48:59.714395,7.230313262
1776408539722087318,0.375,,,,2026-04-17 06:48:59.722087 UTC,2026-04-17 06:48:59.722087,7.238005052
1776408539729779108,0.363,,,,2026-04-17 06:48:59.729779 UTC,2026-04-17 06:48:59.729779,7.245696842
1776408539737470898,0.355,,,,2026-04-17 06:48:59.737470 UTC,2026-04-17 06:48:59.737470,7.253388632
1776408539745162688,0.341,,,,2026-04-17 06:48:59.745162 UTC,2026-04-17 06:48:59.745162,7.261080422
1776408539752854478,0.299,,,,2026-04-17 06:48:59.752854 UTC,2026-04-17 06:48:59.752854,7.268772212
1776408539760546268,0.245,,,,2026-04-17 06:48:59.760546 UTC,2026-04-17 06:48:59.760546,7.276464002
1776408539768238058,0.203,,,,2026-04-17 06:48:59.768238 UTC,2026-04-17 06:48:59.768238,7.284155792
1776408539775929848,0.169,,,,2026-04-17 06:48:59.775929 UTC,2026-04-17 06:48:59.775929,7.291847582
1776408539783621650,0.12,77.0,,,2026-04-17 06:48:59.783621 UTC,2026-04-17 06:48:59.783621,7.299539384
1776408539791313440,0.08,,,,2026-04-17 06:48:59.791313 UTC,2026-04-17 06:48:59.791313,7.307231174
1776408539799005230,0.073,,,,2026-04-17 06:48:59.799005 UTC,2026-04-17 06:48:59.799005,7.314922964
1776408539806697020,0.056,,,,2026-04-17 06:48:59.806697 UTC,2026-04-17 06:48:59.806697,7.322614754
1776408539814388810,0.014,,,,2026-04-17 06:48:59.814388 UTC,2026-04-17 06:48:59.814388,7.330306544
1776408539822080600,-0.002,,,,2026-04-17 06:48:59.822080 UTC,2026-04-17 06:48:59.822080,7.337998334
1776408539829772390,-0.002,,,,2026-04-17 06:48:59.829772 UTC,2026-04-17 06:48:59.829772,7.345690124
1776408539837464180,-0.012,,,,2026-04-17 06:48:59.837464 UTC,2026-04-17 06:48:59.837464,7.353381914
1776408539845155970,-0.024,,,,2026-04-17 06:48:59.845155 UTC,2026-04-17 06:48:59.845155,7.361073704
1776408539852847760,-0.024,,,,2026-04-17 06:48:59.852847 UTC,2026-04-17 06:48:59.852847,7.368765494
1776408539860539550,-0.026,,,,2026-04-17 06:48:59.860539 UTC,2026-04-17 06:48:59.860539,7.376457284
1776408539868231340,-0.034,,,,2026-04-17 06:48:59.868231 UTC,2026-04-17 06:48:59.868231,7.384149074
1776408539875923130,-0.029,,,,2026-04-17 06:48:59.875923 UTC,2026-04-17 06:48:59.875923,7.391840864
1776408539883614920,-0.019,,,,2026-04-17 06:48:59.883614 UTC,2026-04-17 06:48:59.883614,7.399532654
1776408539891306710,-0.022,,,,2026-04-17 06:48:59.891306 UTC,2026-04-17 06:48:59.891306,7.407224444
1776408539898998500,-0.022,,,,2026-04-17 06:48:59.898998 UTC,2026-04-17 06:48:59.898998,7.414916234
1776408539906690290,-0.017,,,,2026-04-17 06:48:59.906690 UTC,2026-04-17 06:48:59.906690,7.422608024
1776408539914382080,-0.007,,,,2026-04-17 06:48:59.914382 UTC,2026-04-17 06:48:59.914382,7.430299814
1776408539922073870,0.002,,,,2026-04-17 06:48:59.922073 UTC,2026-04-17 06:48:59.922073,7.437991604
1776408539929765660,0.004,,,,2026-04-17 06:48:59.929765 UTC,2026-04-17 06:48:59.929765,7.445683394
1776408539937457450,0.004,,,,2026-04-17 06:48:59.937457 UTC,2026-04-17 06:48:59.937457,7.453375184
1776408539945149240,0.007,,,,2026-04-17 06:48:59.945149 UTC,2026-04-17 06:48:59.945149,7.461066974
1776408539952841030,0.009,,,,2026-04-17 06:48:59.952841 UTC,2026-04-17 06:48:59.952841,7.468758764
1776408539960532820,0.012,,,,2026-04-17 06:48:59.960532 UTC,2026-04-17 06:48:59.960532,7.476450554
1776408539968224610,0.019,,,,2026-04-17 06:48:59.968224 UTC,2026-04-17 06:48:59.968224,7.484142344
1776408539975916400,0.019,,,,2026-04-17 06:48:59.975916 UTC,2026-04-17 06:48:59.975916,7.491834134
1776408539983608190,0.007,,,,2026-04-17 06:48:59.983608 UTC,2026-04-17 06:48:59.983608,7.499525924
1776408539991299980,0.002,,,,2026-04-17 06:48:59.991299 UTC,2026-04-17 06:48:59.991299,7.507217714
1776408539998991770,0.002,,,,2026-04-17 06:48:59.998991 UTC,2026-04-17 06:48:59.998991,7.514909504
1776408540006683560,0.004,,,,2026-04-17 06:49:00.006683 UTC,2026-04-17 06:49:00.006683,7.522601294
1776408540014375350,0.012,,,,2026-04-17 06:49:00.014375 UTC,2026-04-17 06:49:00.014375,7.530293084
1776408540022067140,0.012,,,,2026-04-17 06:49:00.022067 UTC,2026-04-17 06:49:00.022067,7.537984874
1776408540029758930,0.014,,,,2026-04-17 06:49:00.029758 UTC,2026-04-17 06:49:00.029758,7.545676664
1776408540037450720,0.012,,,,2026-04-17 06:49:00.037450 UTC,2026-04-17 06:49:00.037450,7.553368454
1776408540045142510,0.007,,,,2026-04-17 06:49:00.045142 UTC,2026-04-17 06:49:00.045142,7.561060244
1776408540052834300,0.009,,,,2026-04-17 06:49:00.052834 UTC,2026-04-17 06:49:00.052834,7.568752034
1776408540060526090,0.024,,831.0,,2026-04-17 06:49:00.060526 UTC,2026-04-17 06:49:00.060526,7.576443824
1776408540068217880,0.034,,,,2026-04-17 06:49:00.068217 UTC,2026-04-17 06:49:00.068217,7.584135614
1776408540075909670,0.024,,,,2026-04-17 06:49:00.075909 UTC,2026-04-17 06:49:00.075909,7.591827404
1776408540083601460,0.012,,,,2026-04-17 06:49:00.083601 UTC,2026-04-17 06:49:00.083601,7.599519194
1776408540091293250,0.026,,,,2026-04-17 06:49:00.091293 UTC,2026-04-17 06:49:00.091293,7.607210984
1776408540098985040,0.051,,,,2026-04-17 06:49:00.098985 UTC,2026-04-17 06:49:00.098985,7.614902774
1776408540106676830,0.049,,,,2026-04-17 06:49:00.106676 UTC,2026-04-17 06:49:00.106676,7.622594564
1776408540114368620,0.039,,,,2026-04-17 06:49:00.114368 UTC,2026-04-17 06:49:00.114368,7.630286354
1776408540122060410,0.044,,,,2026-04-17 06:49:00.122060 UTC,2026-04-17 06:49:00.122060,7.637978144
1776408540129752200,0.051,,,,2026-04-17 06:49:00.129752 UTC,2026-04-17 06:49:00.129752,7.645669934
1776408540137443990,0.056,,,,2026-04-17 06:49:00.137443 UTC,2026-04-17 06:49:00.137443,7.653361724
1776408540145135780,0.056,,,,2026-04-17 06:49:00.145135 UTC,2026-04-17 06:49:00.145135,7.661053514
1776408540152827570,0.051,,,,2026-04-17 06:49:00.152827 UTC,2026-04-17 06:49:00.152827,7.668745304
1776408540160519360,0.058,,,,2026-04-17 06:49:00.160519 UTC,2026-04-17 06:49:00.160519,7.676437094
1776408540168211150,0.061,,,,2026-04-17 06:49:00.168211 UTC,2026-04-17 06:49:00.168211,7.684128884
1776408540175902940,0.053,,,,2026-04-17 06:49:00.175902 UTC,2026-04-17 06:49:00.175902,7.691820674
1776408540183594730,0.061,,,,2026-04-17 06:49:00.183594 UTC,2026-04-17 06:49:00.183594,7.699512464
1776408540191286520,0.073,,,,2026-04-17 06:49:00.191286 UTC,2026-04-17 06:49:00.191286,7.707204254
1776408540198978310,0.076,,,,2026-04-17 06:49:00.198978 UTC,2026-04-17 06:49:00.198978,7.714896044
1776408540206670100,0.085,,,,2026-04-17 06:49:00.206670 UTC,2026-04-17 06:49:00.206670,7.722587834
1776408540214361890,0.107,,,,2026-04-17 06:49:00.214361 UTC,2026-04-17 06:49:00.214361,7.730279624
1776408540222053680,0.117,,,,2026-04-17 06:49:00.222053 UTC,2026-04-17 06:49:00.222053,7.737971414
1776408540229745470,0.11,,,,2026-04-17 06:49:00.229745 UTC,2026-04-17 06:49:00.229745,7.745663204
1776408540237437260,0.103,,,,2026-04-17 06:49:00.237437 UTC,2026-04-17 06:49:00.237437,7.753354994
1776408540245129050,0.098,,,,2026-04-17 06:49:00.245129 UTC,2026-04-17 06:49:00.245129,7.761046784
1776408540252820840,0.083,,,,2026-04-17 06:49:00.252820 UTC,2026-04-17 06:49:00.252820,7.768738574
1776408540260512630,0.071,,,,2026-04-17 06:49:00.260512 UTC,2026-04-17 06:49:00.260512,7.776430364
1776408540268204420,0.071,,,,2026-04-17 06:49:00.268204 UTC,2026-04-17 06:49:00.268204,7.784122154
1776408540275896210,0.073,,,,2026-04-17 06:49:00.275896 UTC,2026-04-17 06:49:00.275896,7.791813944
1776408540283588000,0.063,,,,2026-04-17 06:49:00.283588 UTC,2026-04-17 06:49:00.283588,7.799505734
1776408540291279790,0.066,,,,2026-04-17 06:49:00.291279 UTC,2026-04-17 06:49:00.291279,7.807197524
1776408540298971580,0.08,,,,2026-04-17 06:49:00.298971 UTC,2026-04-17 06:49:00.298971,7.814889314
1776408540306663370,0.088,,,,2026-04-17 06:49:00.306663 UTC,2026-04-17 06:49:00.306663,7.822581104
1776408540314355160,0.13,,,,2026-04-17 06:49:00.314355 UTC,2026-04-17 06:49:00.314355,7.830272894
1776408540322046950,0.417,,,,2026-04-17 06:49:00.322046 UTC,2026-04-17 06:49:00.322046,7.837964684
1776408540329738740,1.089,,,,2026-04-17 06:49:00.329738 UTC,2026-04-17 06:49:00.329738,7.845656474
1776408540337430530,1.516,,,,2026-04-17 06:49:00.337430 UTC,2026-04-17 06:49:00.337430,7.853348264
1776408540345122332,0.547,76.0,,,2026-04-17 06:49:00.345122 UTC,2026-04-17 06:49:00.345122,7.861040066
1776408540352814122,-1.266,,,,2026-04-17 06:49:00.352814 UTC,2026-04-17 06:49:00.352814,7.868731856
1776408540360505912,-1.769,,,,2026-04-17 06:49:00.360505 UTC,2026-04-17 06:49:00.360505,7.876423646
1776408540368197702,-0.927,,,,2026-04-17 06:49:00.368197 UTC,2026-04-17 06:49:00.368197,7.884115436
1776408540375889492,-0.414,,,,2026-04-17 06:49:00.375889 UTC,2026-04-17 06:49:00.375889,7.891807226
1776408540383581282,-0.228,,,,2026-04-17 06:49:00.383581 UTC,2026-04-17 06:49:00.383581,7.899499016
1776408540391273072,0.154,,,,2026-04-17 06:49:00.391273 UTC,2026-04-17 06:49:00.391273,7.907190806
1776408540398964862,0.304,,,,2026-04-17 06:49:00.398964 UTC,2026-04-17 06:49:00.398964,7.914882596
1776408540406656652,0.201,,,,2026-04-17 06:49:00.406656 UTC,2026-04-17 06:49:00.406656,7.922574386
1776408540414348442,0.23,,,,2026-04-17 06:49:00.414348 UTC,2026-04-17 06:49:00.414348,7.930266176
1776408540422040232,0.301,,,,2026-04-17 06:49:00.422040 UTC,2026-04-17 06:49:00.422040,7.937957966
1776408540429732022,0.282,,,,2026-04-17 06:49:00.429732 UTC,2026-04-17 06:49:00.429732,7.945649756
1776408540437423812,0.282,,,,2026-04-17 06:49:00.437423 UTC,2026-04-17 06:49:00.437423,7.953341546
1776408540445115602,0.304,,,,2026-04-17 06:49:00.445115 UTC,2026-04-17 06:49:00.445115,7.961033336
1776408540452807392,0.291,,,,2026-04-17 06:49:00.452807 UTC,2026-04-17 06:49:00.452807,7.968725126
1776408540460499182,0.284,,,,2026-04-17 06:49:00.460499 UTC,2026-04-17 06:49:00.460499,7.976416916
1776408540468190972,0.291,,,,2026-04-17 06:49:00.468190 UTC,2026-04-17 06:49:00.468190,7.984108706
1776408540475882762,0.299,,,,2026-04-17 06:49:00.475882 UTC,2026-04-17 06:49:00.475882,7.991800496
1776408540483574552,0.314,,,,2026-04-17 06:49:00.483574 UTC,2026-04-17 06:49:00.483574,7.999492286
1776408540491266342,0.328,,,,2026-04-17 06:49:00.491266 UTC,2026-04-17 06:49:00.491266,8.007184076
1776408540498958132,0.328,,,,2026-04-17 06:49:00.498958 UTC,2026-04-17 06:49:00.498958,8.014875866
1776408540506649922,0.345,,,,2026-04-17 06:49:00.506649 UTC,2026-04-17 06:49:00.506649,8.022567656
1776408540514341712,0.365,,,,2026-04-17 06:49:00.514341 UTC,2026-04-17 06:49:00.514341,8.030259446
1776408540522033502,0.36,,,,2026-04-17 06:49:00.522033 UTC,2026-04-17 06:49:00.522033,8.037951236
1776408540529725292,0.368,,,,2026-04-17 06:49:00.529725 UTC,2026-04-17 06:49:00.529725,8.045643026
1776408540537417082,0.385,,,,2026-04-17 06:49:00.537417 UTC,2026-04-17 06:49:00.537417,8.053334816
1776408540545108872,0.395,,,,2026-04-17 06:49:00.545108 UTC,2026-04-17 06:49:00.545108,8.061026606
1776408540552800662,0.399,,,,2026-04-17 06:49:00.552800 UTC,2026-04-17 06:49:00.552800,8.068718396
1776408540560492452,0.402,,,,2026-04-17 06:49:00.560492 UTC,2026-04-17 06:49:00.560492,8.076410186
1776408540568184242,0.385,,,,2026-04-17 06:49:00.568184 UTC,2026-04-17 06:49:00.568184,8.084101976
1776408540575876032,0.35,,,,2026-04-17 06:49:00.575876 UTC,2026-04-17 06:49:00.575876,8.091793766
1776408540583567822,0.296,,,,2026-04-17 06:49:00.583567 UTC,2026-04-17 06:49:00.583567,8.099485556
1776408540591259612,0.25,,,,2026-04-17 06:49:00.591259 UTC,2026-04-17 06:49:00.591259,8.107177346
1776408540598951402,0.213,,,,2026-04-17 06:49:00.598951 UTC,2026-04-17 06:49:00.598951,8.114869136
1776408540606643192,0.171,,,,2026-04-17 06:49:00.606643 UTC,2026-04-17 06:49:00.606643,8.122560926
1776408540614334982,0.125,,,,2026-04-17 06:49:00.614334 UTC,2026-04-17 06:49:00.614334,8.130252716
1776408540622026772,0.083,,,,2026-04-17 06:49:00.622026 UTC,2026-04-17 06:49:00.622026,8.137944506
1776408540629718562,0.044,,,,2026-04-17 06:49:00.629718 UTC,2026-04-17 06:49:00.629718,8.145636296
1776408540637410352,0.017,,,,2026-04-17 06:49:00.637410 UTC,2026-04-17 06:49:00.637410,8.153328086
1776408540645102142,0.002,,,,2026-04-17 06:49:00.645102 UTC,2026-04-17 06:49:00.645102,8.161019876
1776408540652793932,-0.004,,,,2026-04-17 06:49:00.652793 UTC,2026-04-17 06:49:00.652793,8.168711666
1776408540660485722,-0.004,,,,2026-04-17 06:49:00.660485 UTC,2026-04-17 06:49:00.660485,8.176403456
1776408540668177512,-0.012,,,,2026-04-17 06:49:00.668177 UTC,2026-04-17 06:49:00.668177,8.184095246
1776408540675869302,-0.019,,,,2026-04-17 06:49:00.675869 UTC,2026-04-17 06:49:00.675869,8.191787036
1776408540683561092,-0.017,,,,2026-04-17 06:49:00.683561 UTC,2026-04-17 06:49:00.683561,8.199478826
1776408540691252882,-0.014,,,,2026-04-17 06:49:00.691252 UTC,2026-04-17 06:49:00.691252,8.207170616
1776408540698944672,-0.019,,,,2026-04-17 06:49:00.698944 UTC,2026-04-17 06:49:00.698944,8.214862406
1776408540706636462,-0.012,,,,2026-04-17 06:49:00.706636 UTC,2026-04-17 06:49:00.706636,8.222554196
1776408540714328252,0.004,,,,2026-04-17 06:49:00.714328 UTC,2026-04-17 06:49:00.714328,8.230245986
1776408540722020042,0.017,,,,2026-04-17 06:49:00.722020 UTC,2026-04-17 06:49:00.722020,8.237937776
1776408540729711832,0.007,,,,2026-04-17 06:49:00.729711 UTC,2026-04-17 06:49:00.729711,8.245629566
1776408540737403622,0.012,,,,2026-04-17 06:49:00.737403 UTC,2026-04-17 06:49:00.737403,8.253321356
1776408540745095412,0.041,,,,2026-04-17 06:49:00.745095 UTC,2026-04-17 06:49:00.745095,8.261013146
1776408540752787202,0.056,,,,2026-04-17 06:49:00.752787 UTC,2026-04-17 06:49:00.752787,8.268704936
1776408540760478992,0.041,,,,2026-04-17 06:49:00.760478 UTC,2026-04-17 06:49:00.760478,8.276396726
1776408540768170782,0.031,,,,2026-04-17 06:49:00.768170 UTC,2026-04-17 06:49:00.768170,8.284088516
1776408540775862572,0.039,,,,2026-04-17 06:49:00.775862 UTC,2026-04-17 06:49:00.775862,8.291780306
1776408540783554362,0.039,,,,2026-04-17 06:49:00.783554 UTC,2026-04-17 06:49:00.783554,8.299472096
1776408540791246152,0.034,,,,2026-04-17 06:49:00.791246 UTC,2026-04-17 06:49:00.791246,8.307163886
1776408540798937942,0.041,,,,2026-04-17 06:49:00.798937 UTC,2026-04-17 06:49:00.798937,8.314855676
1776408540806629732,0.031,,,,2026-04-17 06:49:00.806629 UTC,2026-04-17 06:49:00.806629,8.322547466
1776408540814321522,0.012,,,,2026-04-17 06:49:00.814321 UTC,2026-04-17 06:49:00.814321,8.330239256
1776408540822013312,0.024,,,,2026-04-17 06:49:00.822013 UTC,2026-04-17 06:49:00.822013,8.337931046
1776408540829705102,0.053,,772.0,,2026-04-17 06:49:00.829705 UTC,2026-04-17 06:49:00.829705,8.345622836
1776408540837396892,0.058,,,,2026-04-17 06:49:00.837396 UTC,2026-04-17 06:49:00.837396,8.353314626
1776408540845088682,0.036,,,,2026-04-17 06:49:00.845088 UTC,2026-04-17 06:49:00.845088,8.361006416
1776408540852780472,0.026,,,,2026-04-17 06:49:00.852780 UTC,2026-04-17 06:49:00.852780,8.368698206
1776408540860472262,0.051,,,,2026-04-17 06:49:00.860472 UTC,2026-04-17 06:49:00.860472,8.376389996
1776408540868164052,0.073,,,,2026-04-17 06:49:00.868164 UTC,2026-04-17 06:49:00.868164,8.384081786
1776408540875855842,0.026,,,,2026-04-17 06:49:00.875855 UTC,2026-04-17 06:49:00.875855,8.391773576
1776408540883547632,-0.031,,,,2026-04-17 06:49:00.883547 UTC,2026-04-17 06:49:00.883547,8.399465366
1776408540891239422,-0.019,,,,2026-04-17 06:49:00.891239 UTC,2026-04-17 06:49:00.891239,8.407157156
1776408540898931212,0.002,,,,2026-04-17 06:49:00.898931 UTC,2026-04-17 06:49:00.898931,8.414848946
1776408540906623014,0.004,,,,2026-04-17 06:49:00.906623 UTC,2026-04-17 06:49:00.906623,8.422540748
1776408540914314804,0.024,,,,2026-04-17 06:49:00.914314 UTC,2026-04-17 06:49:00.914314,8.430232538
1776408540922006594,0.034,,,,2026-04-17 06:49:00.922006 UTC,2026-04-17 06:49:00.922006,8.437924328
1776408540929698384,0.039,,,,2026-04-17 06:49:00.929698 UTC,2026-04-17 06:49:00.929698,8.445616118
1776408540937390174,0.058,,,,2026-04-17 06:49:00.937390 UTC,2026-04-17 06:49:00.937390,8.453307908
1776408540945081964,0.044,,,,2026-04-17 06:49:00.945081 UTC,2026-04-17 06:49:00.945081,8.460999698
1776408540952773754,0.009,,,,2026-04-17 06:49:00.952773 UTC,2026-04-17 06:49:00.952773,8.468691488
1776408540960465544,0.031,,,,2026-04-17 06:49:00.960465 UTC,2026-04-17 06:49:00.960465,8.476383278
1776408540968157334,0.053,,,,2026-04-17 06:49:00.968157 UTC,2026-04-17 06:49:00.968157,8.484075068
1776408540975849124,0.039,,,,2026-04-17 06:49:00.975849 UTC,2026-04-17 06:49:00.975849,8.491766858
1776408540983540914,0.058,,,,2026-04-17 06:49:00.983540 UTC,2026-04-17 06:49:00.983540,8.499458648
1776408540991232704,0.098,,,,2026-04-17 06:49:00.991232 UTC,2026-04-17 06:49:00.991232,8.507150438
1776408540998924494,0.073,,,,2026-04-17 06:49:00.998924 UTC,2026-04-17 06:49:00.998924,8.514842228
1776408541006616284,0.044,,,,2026-04-17 06:49:01.006616 UTC,2026-04-17 06:49:01.006616,8.522534018
1776408541014308074,0.083,,,,2026-04-17 06:49:01.014308 UTC,2026-04-17 06:49:01.014308,8.530225808
1776408541021999864,0.11,,,,2026-04-17 06:49:01.021999 UTC,2026-04-17 06:49:01.021999,8.537917598
1776408541029691654,0.066,,,,2026-04-17 06:49:01.029691 UTC,2026-04-17 06:49:01.029691,8.545609388
1776408541037383444,0.061,,,,2026-04-17 06:49:01.037383 UTC,2026-04-17 06:49:01.037383,8.553301178
1776408541045075234,0.09,,,,2026-04-17 06:49:01.045075 UTC,2026-04-17 06:49:01.045075,8.560992968
1776408541052767024,0.046,,,,2026-04-17 06:49:01.052767 UTC,2026-04-17 06:49:01.052767,8.568684758
1776408541060458814,0.026,,,,2026-04-17 06:49:01.060458 UTC,2026-04-17 06:49:01.060458,8.576376548
1776408541068150604,0.044,,,,2026-04-17 06:49:01.068150 UTC,2026-04-17 06:49:01.068150,8.584068338
1776408541075842394,0.012,,,,2026-04-17 06:49:01.075842 UTC,2026-04-17 06:49:01.075842,8.591760128
1776408541083534184,0.019,,,,2026-04-17 06:49:01.083534 UTC,2026-04-17 06:49:01.083534,8.599451918
1776408541091225974,0.071,,,,2026-04-17 06:49:01.091225 UTC,2026-04-17 06:49:01.091225,8.607143708
1776408541098917764,0.053,,,,2026-04-17 06:49:01.098917 UTC,2026-04-17 06:49:01.098917,8.614835498
1776408541106609554,0.161,,,,2026-04-17 06:49:01.106609 UTC,2026-04-17 06:49:01.106609,8.622527288
1776408541114301344,0.704,,,,2026-04-17 06:49:01.114301 UTC,2026-04-17 06:49:01.114301,8.630219078
1776408541121993134,1.42,,,,2026-04-17 06:49:01.121993 UTC,2026-04-17 06:49:01.121993,8.637910868
1776408541129684924,1.285,,,,2026-04-17 06:49:01.129684 UTC,2026-04-17 06:49:01.129684,8.645602658
1776408541137376714,-0.326,,,,2026-04-17 06:49:01.137376 UTC,2026-04-17 06:49:01.137376,8.653294448
1776408541145068504,-1.82,,,,2026-04-17 06:49:01.145068 UTC,2026-04-17 06:49:01.145068,8.660986238
1776408541152760294,-1.528,,,,2026-04-17 06:49:01.152760 UTC,2026-04-17 06:49:01.152760,8.668678028
1776408541160452084,-0.608,,,,2026-04-17 06:49:01.160452 UTC,2026-04-17 06:49:01.160452,8.676369818
1776408541168143874,-0.311,,,,2026-04-17 06:49:01.168143 UTC,2026-04-17 06:49:01.168143,8.684061608
1776408541175835664,-0.083,,,,2026-04-17 06:49:01.175835 UTC,2026-04-17 06:49:01.175835,8.691753398
1776408541183527454,0.257,,,,2026-04-17 06:49:01.183527 UTC,2026-04-17 06:49:01.183527,8.699445188
1776408541191219244,0.267,,,,2026-04-17 06:49:01.191219 UTC,2026-04-17 06:49:01.191219,8.707136978
1776408541198911034,0.139,,,,2026-04-17 06:49:01.198911 UTC,2026-04-17 06:49:01.198911,8.714828768
1776408541206602824,0.215,,,,2026-04-17 06:49:01.206602 UTC,2026-04-17 06:49:01.206602,8.722520558
1776408541214294614,0.333,,,,2026-04-17 06:49:01.214294 UTC,2026-04-17 06:49:01.214294,8.730212348
1776408541221986404,0.296,,,,2026-04-17 06:49:01.221986 UTC,2026-04-17 06:49:01.221986,8.737904138
1776408541229678194,0.245,,,,2026-04-17 06:49:01.229678 UTC,2026-04-17 06:49:01.229678,8.745595928
1776408541237369984,0.291,,,,2026-04-17 06:49:01.237369 UTC,2026-04-17 06:49:01.237369,8.753287718
1776408541245061774,0.316,,,,2026-04-17 06:49:01.245061 UTC,2026-04-17 06:49:01.245061,8.760979508
1776408541252753564,0.306,,,,2026-04-17 06:49:01.252753 UTC,2026-04-17 06:49:01.252753,8.768671298
1776408541260445354,0.318,,,,2026-04-17 06:49:01.260445 UTC,2026-04-17 06:49:01.260445,8.776363088
1776408541268137144,0.326,,,,2026-04-17 06:49:01.268137 UTC,2026-04-17 06:49:01.268137,8.784054878
1776408541275828934,0.331,,,,2026-04-17 06:49:01.275828 UTC,2026-04-17 06:49:01.275828,8.791746668
1776408541283520724,0.341,,,,2026-04-17 06:49:01.283520 UTC,2026-04-17 06:49:01.283520,8.799438458
1776408541291212514,0.331,,,,2026-04-17 06:49:01.291212 UTC,2026-04-17 06:49:01.291212,8.807130248
1776408541298904304,0.318,,,,2026-04-17 06:49:01.298904 UTC,2026-04-17 06:49:01.298904,8.814822038
1776408541306596094,0.348,,,,2026-04-17 06:49:01.306596 UTC,2026-04-17 06:49:01.306596,8.822513828
1776408541314287884,0.377,,,,2026-04-17 06:49:01.314287 UTC,2026-04-17 06:49:01.314287,8.830205618
1776408541321979674,0.37,,,,2026-04-17 06:49:01.321979 UTC,2026-04-17 06:49:01.321979,8.837897408
1776408541329671464,0.382,,,,2026-04-17 06:49:01.329671 UTC,2026-04-17 06:49:01.329671,8.845589198
1776408541337363254,0.404,,,,2026-04-17 06:49:01.337363 UTC,2026-04-17 06:49:01.337363,8.853280988
1776408541345055044,0.397,,,,2026-04-17 06:49:01.345055 UTC,2026-04-17 06:49:01.345055,8.860972778
1776408541352746834,0.387,,,,2026-04-17 06:49:01.352746 UTC,2026-04-17 06:49:01.352746,8.868664568
1776408541360438624,0.365,,,,2026-04-17 06:49:01.360438 UTC,2026-04-17 06:49:01.360438,8.876356358
1776408541368130414,0.311,,,,2026-04-17 06:49:01.368130 UTC,2026-04-17 06:49:01.368130,8.884048148
1776408541375822204,0.272,,,,2026-04-17 06:49:01.375822 UTC,2026-04-17 06:49:01.375822,8.891739938
1776408541383513994,0.238,,,,2026-04-17 06:49:01.383513 UTC,2026-04-17 06:49:01.383513,8.899431728
1776408541391205784,0.166,,,,2026-04-17 06:49:01.391205 UTC,2026-04-17 06:49:01.391205,8.907123518
1776408541398897574,0.105,,,,2026-04-17 06:49:01.398897 UTC,2026-04-17 06:49:01.398897,8.914815308
1776408541406589364,0.076,,,,2026-04-17 06:49:01.406589 UTC,2026-04-17 06:49:01.406589,8.922507098
1776408541414281154,0.044,,,,2026-04-17 06:49:01.414281 UTC,2026-04-17 06:49:01.414281,8.930198888
1776408541421972944,0.022,,,,2026-04-17 06:49:01.421972 UTC,2026-04-17 06:49:01.421972,8.937890678
1776408541429664734,0.007,,,,2026-04-17 06:49:01.429664 UTC,2026-04-17 06:49:01.429664,8.945582468
1776408541437356524,-0.014,,,,2026-04-17 06:49:01.437356 UTC,2026-04-17 06:49:01.437356,8.953274258
1776408541445048314,-0.034,,,,2026-04-17 06:49:01.445048 UTC,2026-04-17 06:49:01.445048,8.960966048
1776408541452740104,-0.056,,,,2026-04-17 06:49:01.452740 UTC,2026-04-17 06:49:01.452740,8.968657838
1776408541460431894,-0.078,,,,2026-04-17 06:49:01.460431 UTC,2026-04-17 06:49:01.460431,8.976349628
1776408541468123696,-0.046,76.0,,,2026-04-17 06:49:01.468123 UTC,2026-04-17 06:49:01.468123,8.98404143
1776408541475815486,0.0,,,,2026-04-17 06:49:01.475815 UTC,2026-04-17 06:49:01.475815,8.99173322
1776408541483507276,-0.017,,,,2026-04-17 06:49:01.483507 UTC,2026-04-17 06:49:01.483507,8.99942501
1776408541491199066,-0.041,,,,2026-04-17 06:49:01.491199 UTC,2026-04-17 06:49:01.491199,9.0071168
1776408541498890856,-0.007,,,,2026-04-17 06:49:01.498890 UTC,2026-04-17 06:49:01.498890,9.01480859
1776408541506582646,0.014,,,,2026-04-17 06:49:01.506582 UTC,2026-04-17 06:49:01.506582,9.02250038
1776408541514274436,-0.022,,,,2026-04-17 06:49:01.514274 UTC,2026-04-17 06:49:01.514274,9.03019217
1776408541521966226,-0.026,,,,2026-04-17 06:49:01.521966 UTC,2026-04-17 06:49:01.521966,9.03788396
1776408541529658016,0.014,,,,2026-04-17 06:49:01.529658 UTC,2026-04-17 06:49:01.529658,9.04557575
1776408541537349806,0.004,,,,2026-04-17 06:49:01.537349 UTC,2026-04-17 06:49:01.537349,9.05326754
1776408541545041596,-0.014,,,,2026-04-17 06:49:01.545041 UTC,2026-04-17 06:49:01.545041,9.06095933
1776408541552733386,0.026,,,,2026-04-17 06:49:01.552733 UTC,2026-04-17 06:49:01.552733,9.06865112
1776408541560425176,0.022,,,,2026-04-17 06:49:01.560425 UTC,2026-04-17 06:49:01.560425,9.07634291
1776408541568116966,-0.017,,,,2026-04-17 06:49:01.568116 UTC,2026-04-17 06:49:01.568116,9.0840347
1776408541575808756,0.031,,,,2026-04-17 06:49:01.575808 UTC,2026-04-17 06:49:01.575808,9.09172649
1776408541583500546,0.046,,,,2026-04-17 06:49:01.583500 UTC,2026-04-17 06:49:01.583500,9.09941828
1776408541591192336,-0.024,,,,2026-04-17 06:49:01.591192 UTC,2026-04-17 06:49:01.591192,9.10711007
1776408541598884126,-0.019,,,,2026-04-17 06:49:01.598884 UTC,2026-04-17 06:49:01.598884,9.11480186
1776408541606575916,0.022,,,,2026-04-17 06:49:01.606575 UTC,2026-04-17 06:49:01.606575,9.12249365
1776408541614267706,-0.031,,,,2026-04-17 06:49:01.614267 UTC,2026-04-17 06:49:01.614267,9.13018544
1776408541621959496,-0.066,,794.0,,2026-04-17 06:49:01.621959 UTC,2026-04-17 06:49:01.621959,9.13787723
1776408541629651286,-0.014,,,,2026-04-17 06:49:01.629651 UTC,2026-04-17 06:49:01.629651,9.14556902
1776408541637343076,-0.012,,,,2026-04-17 06:49:01.637343 UTC,2026-04-17 06:49:01.637343,9.15326081
1776408541645034866,-0.053,,,,2026-04-17 06:49:01.645034 UTC,2026-04-17 06:49:01.645034,9.1609526
1776408541652726656,-0.058,,,,2026-04-17 06:49:01.652726 UTC,2026-04-17 06:49:01.652726,9.16864439
1776408541660418446,-0.041,,,,2026-04-17 06:49:01.660418 UTC,2026-04-17 06:49:01.660418,9.17633618
1776408541668110236,-0.017,,,,2026-04-17 06:49:01.668110 UTC,2026-04-17 06:49:01.668110,9.18402797
1776408541675802026,-0.012,,,,2026-04-17 06:49:01.675802 UTC,2026-04-17 06:49:01.675802,9.19171976
1776408541683493816,-0.051,,,,2026-04-17 06:49:01.683493 UTC,2026-04-17 06:49:01.683493,9.19941155
1776408541691185606,-0.068,,,,2026-04-17 06:49:01.691185 UTC,2026-04-17 06:49:01.691185,9.20710334
1776408541698877396,-0.031,,,,2026-04-17 06:49:01.698877 UTC,2026-04-17 06:49:01.698877,9.21479513
1776408541706569186,-0.014,,,,2026-04-17 06:49:01.706569 UTC,2026-04-17 06:49:01.706569,9.22248692
1776408541714260976,-0.012,,,,2026-04-17 06:49:01.714260 UTC,2026-04-17 06:49:01.714260,9.23017871
1776408541721952766,0.002,,,,2026-04-17 06:49:01.721952 UTC,2026-04-17 06:49:01.721952,9.2378705
1776408541729644556,-0.007,,,,2026-04-17 06:49:01.729644 UTC,2026-04-17 06:49:01.729644,9.24556229
1776408541737336346,-0.046,,,,2026-04-17 06:49:01.737336 UTC,2026-04-17 06:49:01.737336,9.25325408
1776408541745028136,-0.049,,,,2026-04-17 06:49:01.745028 UTC,2026-04-17 06:49:01.745028,9.26094587
1776408541752719926,0.004,,,,2026-04-17 06:49:01.752719 UTC,2026-04-17 06:49:01.752719,9.26863766
1776408541760411716,0.014,,,,2026-04-17 06:49:01.760411 UTC,2026-04-17 06:49:01.760411,9.27632945
1776408541768103506,-0.009,,,,2026-04-17 06:49:01.768103 UTC,2026-04-17 06:49:01.768103,9.28402124
1776408541775795296,0.014,,,,2026-04-17 06:49:01.775795 UTC,2026-04-17 06:49:01.775795,9.29171303
1776408541783487086,0.007,,,,2026-04-17 06:49:01.783487 UTC,2026-04-17 06:49:01.783487,9.29940482
1776408541791178876,-0.017,,,,2026-04-17 06:49:01.791178 UTC,2026-04-17 06:49:01.791178,9.30709661
1776408541798870666,0.031,,,,2026-04-17 06:49:01.798870 UTC,2026-04-17 06:49:01.798870,9.3147884
