UNIX Timestamp,ECG,HR,RR,Marker,datetime_utc,datetime_local,elapsed_seconds
1776408881179728984,0.056,,,,2026-04-17 06:54:41.179728 UTC,2026-04-17 06:54:41.179728,0.0
1776408881187420774,0.036,,,,2026-04-17 06:54:41.187420 UTC,2026-04-17 06:54:41.187420,0.00769179
1776408881195112564,0.039,,,,2026-04-17 06:54:41.195112 UTC,2026-04-17 06:54:41.195112,0.01538358
1776408881202804354,0.041,,,,2026-04-17 06:54:41.202804 UTC,2026-04-17 06:54:41.202804,0.02307537
1776408881210496144,0.044,,,,2026-04-17 06:54:41.210496 UTC,2026-04-17 06:54:41.210496,0.03076716
1776408881218187934,0.061,,,,2026-04-17 06:54:41.218187 UTC,2026-04-17 06:54:41.218187,0.03845895
1776408881225879724,0.139,,,,2026-04-17 06:54:41.225879 UTC,2026-04-17 06:54:41.225879,0.04615074
1776408881233571514,0.476,,,,2026-04-17 06:54:41.233571 UTC,2026-04-17 06:54:41.233571,0.05384253
1776408881241263304,1.138,,,,2026-04-17 06:54:41.241263 UTC,2026-04-17 06:54:41.241263,0.06153432
1776408881248955094,1.354,,,,2026-04-17 06:54:41.248955 UTC,2026-04-17 06:54:41.248955,0.06922611
1776408881256646884,0.176,,,,2026-04-17 06:54:41.256646 UTC,2026-04-17 06:54:41.256646,0.0769179
1776408881264338674,-1.425,,,,2026-04-17 06:54:41.264338 UTC,2026-04-17 06:54:41.264338,0.08460969
1776408881272030464,-1.57,,,,2026-04-17 06:54:41.272030 UTC,2026-04-17 06:54:41.272030,0.09230148
1776408881279722254,-0.726,,,,2026-04-17 06:54:41.279722 UTC,2026-04-17 06:54:41.279722,0.09999327
1776408881287414044,-0.336,,,,2026-04-17 06:54:41.287414 UTC,2026-04-17 06:54:41.287414,0.10768506
1776408881295105834,-0.149,,,,2026-04-17 06:54:41.295105 UTC,2026-04-17 06:54:41.295105,0.11537685
1776408881302797624,0.176,,,,2026-04-17 06:54:41.302797 UTC,2026-04-17 06:54:41.302797,0.12306864
1776408881310489414,0.242,,,,2026-04-17 06:54:41.310489 UTC,2026-04-17 06:54:41.310489,0.13076043
1776408881318181204,0.169,,,,2026-04-17 06:54:41.318181 UTC,2026-04-17 06:54:41.318181,0.13845222
1776408881325872994,0.233,,,,2026-04-17 06:54:41.325872 UTC,2026-04-17 06:54:41.325872,0.14614401
1776408881333564784,0.274,,,,2026-04-17 06:54:41.333564 UTC,2026-04-17 06:54:41.333564,0.1538358
1776408881341256574,0.24,,,,2026-04-17 06:54:41.341256 UTC,2026-04-17 06:54:41.341256,0.16152759
1776408881348948364,0.242,,,,2026-04-17 06:54:41.348948 UTC,2026-04-17 06:54:41.348948,0.16921938
1776408881356640154,0.277,,,,2026-04-17 06:54:41.356640 UTC,2026-04-17 06:54:41.356640,0.17691117
1776408881364331944,0.296,,,,2026-04-17 06:54:41.364331 UTC,2026-04-17 06:54:41.364331,0.18460296
1776408881372023734,0.294,,,,2026-04-17 06:54:41.372023 UTC,2026-04-17 06:54:41.372023,0.19229475
1776408881379715524,0.296,,,,2026-04-17 06:54:41.379715 UTC,2026-04-17 06:54:41.379715,0.19998654
1776408881387407314,0.309,,,,2026-04-17 06:54:41.387407 UTC,2026-04-17 06:54:41.387407,0.20767833
1776408881395099104,0.316,,,,2026-04-17 06:54:41.395099 UTC,2026-04-17 06:54:41.395099,0.21537012
1776408881402790894,0.323,,,,2026-04-17 06:54:41.402790 UTC,2026-04-17 06:54:41.402790,0.22306191
1776408881410482684,0.333,,,,2026-04-17 06:54:41.410482 UTC,2026-04-17 06:54:41.410482,0.2307537
1776408881418174474,0.341,,,,2026-04-17 06:54:41.418174 UTC,2026-04-17 06:54:41.418174,0.23844549
1776408881425866264,0.345,,,,2026-04-17 06:54:41.425866 UTC,2026-04-17 06:54:41.425866,0.24613728
1776408881433558054,0.358,,,,2026-04-17 06:54:41.433558 UTC,2026-04-17 06:54:41.433558,0.25382907
1776408881441249844,0.385,,,,2026-04-17 06:54:41.441249 UTC,2026-04-17 06:54:41.441249,0.26152086
1776408881448941634,0.404,,,,2026-04-17 06:54:41.448941 UTC,2026-04-17 06:54:41.448941,0.26921265
1776408881456633424,0.397,,,,2026-04-17 06:54:41.456633 UTC,2026-04-17 06:54:41.456633,0.27690444
1776408881464325214,0.392,,,,2026-04-17 06:54:41.464325 UTC,2026-04-17 06:54:41.464325,0.28459623
1776408881472017004,0.39,,,,2026-04-17 06:54:41.472017 UTC,2026-04-17 06:54:41.472017,0.29228802
1776408881479708794,0.365,,,,2026-04-17 06:54:41.479708 UTC,2026-04-17 06:54:41.479708,0.29997981
1776408881487400584,0.338,,,,2026-04-17 06:54:41.487400 UTC,2026-04-17 06:54:41.487400,0.3076716
1776408881495092374,0.306,,,,2026-04-17 06:54:41.495092 UTC,2026-04-17 06:54:41.495092,0.31536339
1776408881502784164,0.257,,,,2026-04-17 06:54:41.502784 UTC,2026-04-17 06:54:41.502784,0.32305518
1776408881510475954,0.223,,,,2026-04-17 06:54:41.510475 UTC,2026-04-17 06:54:41.510475,0.33074697
1776408881518167744,0.196,,,,2026-04-17 06:54:41.518167 UTC,2026-04-17 06:54:41.518167,0.33843876
1776408881525859534,0.147,,,,2026-04-17 06:54:41.525859 UTC,2026-04-17 06:54:41.525859,0.34613055
1776408881533551324,0.098,,,,2026-04-17 06:54:41.533551 UTC,2026-04-17 06:54:41.533551,0.35382234
1776408881541243114,0.063,,,,2026-04-17 06:54:41.541243 UTC,2026-04-17 06:54:41.541243,0.36151413
1776408881548934904,0.034,,,,2026-04-17 06:54:41.548934 UTC,2026-04-17 06:54:41.548934,0.36920592
1776408881556626694,0.012,,,,2026-04-17 06:54:41.556626 UTC,2026-04-17 06:54:41.556626,0.37689771
1776408881564318484,0.004,,,,2026-04-17 06:54:41.564318 UTC,2026-04-17 06:54:41.564318,0.3845895
1776408881572010274,-0.002,,,,2026-04-17 06:54:41.572010 UTC,2026-04-17 06:54:41.572010,0.39228129
1776408881579702064,-0.014,,,,2026-04-17 06:54:41.579702 UTC,2026-04-17 06:54:41.579702,0.39997308
1776408881587393854,-0.019,,,,2026-04-17 06:54:41.587393 UTC,2026-04-17 06:54:41.587393,0.40766487
1776408881595085644,-0.009,,,,2026-04-17 06:54:41.595085 UTC,2026-04-17 06:54:41.595085,0.41535666
1776408881602777434,-0.002,,,,2026-04-17 06:54:41.602777 UTC,2026-04-17 06:54:41.602777,0.42304845
1776408881610469224,0.002,,,,2026-04-17 06:54:41.610469 UTC,2026-04-17 06:54:41.610469,0.43074024
1776408881618161014,0.004,,,,2026-04-17 06:54:41.618161 UTC,2026-04-17 06:54:41.618161,0.43843203
1776408881625852804,0.002,,,,2026-04-17 06:54:41.625852 UTC,2026-04-17 06:54:41.625852,0.44612382
1776408881633544594,0.002,,,,2026-04-17 06:54:41.633544 UTC,2026-04-17 06:54:41.633544,0.45381561
1776408881641236384,0.014,,,,2026-04-17 06:54:41.641236 UTC,2026-04-17 06:54:41.641236,0.4615074
1776408881648928174,0.019,,,,2026-04-17 06:54:41.648928 UTC,2026-04-17 06:54:41.648928,0.46919919
1776408881656619964,0.026,,,,2026-04-17 06:54:41.656619 UTC,2026-04-17 06:54:41.656619,0.47689098
1776408881664311754,0.041,,,,2026-04-17 06:54:41.664311 UTC,2026-04-17 06:54:41.664311,0.48458277
1776408881672003544,0.041,,,,2026-04-17 06:54:41.672003 UTC,2026-04-17 06:54:41.672003,0.49227456
1776408881679695334,0.031,,,,2026-04-17 06:54:41.679695 UTC,2026-04-17 06:54:41.679695,0.49996635
1776408881687387124,0.026,,,,2026-04-17 06:54:41.687387 UTC,2026-04-17 06:54:41.687387,0.50765814
1776408881695078914,0.022,,,,2026-04-17 06:54:41.695078 UTC,2026-04-17 06:54:41.695078,0.51534993
1776408881702770704,0.014,,,,2026-04-17 06:54:41.702770 UTC,2026-04-17 06:54:41.702770,0.52304172
1776408881710462494,0.024,,,,2026-04-17 06:54:41.710462 UTC,2026-04-17 06:54:41.710462,0.53073351
1776408881718154284,0.031,,,,2026-04-17 06:54:41.718154 UTC,2026-04-17 06:54:41.718154,0.5384253
1776408881725846074,0.017,,,,2026-04-17 06:54:41.725846 UTC,2026-04-17 06:54:41.725846,0.54611709
1776408881733537864,0.004,,,,2026-04-17 06:54:41.733537 UTC,2026-04-17 06:54:41.733537,0.55380888
1776408881741229666,0.004,76.0,,,2026-04-17 06:54:41.741229 UTC,2026-04-17 06:54:41.741229,0.561500682
1776408881748921456,0.0,,,,2026-04-17 06:54:41.748921 UTC,2026-04-17 06:54:41.748921,0.569192472
1776408881756613246,0.002,,,,2026-04-17 06:54:41.756613 UTC,2026-04-17 06:54:41.756613,0.576884262
1776408881764305036,0.014,,,,2026-04-17 06:54:41.764305 UTC,2026-04-17 06:54:41.764305,0.584576052
1776408881771996826,0.014,,,,2026-04-17 06:54:41.771996 UTC,2026-04-17 06:54:41.771996,0.592267842
1776408881779688616,0.009,,791.0,,2026-04-17 06:54:41.779688 UTC,2026-04-17 06:54:41.779688,0.599959632
1776408881787380406,0.014,,,,2026-04-17 06:54:41.787380 UTC,2026-04-17 06:54:41.787380,0.607651422
1776408881795072196,0.024,,,,2026-04-17 06:54:41.795072 UTC,2026-04-17 06:54:41.795072,0.615343212
1776408881802763986,0.022,,,,2026-04-17 06:54:41.802763 UTC,2026-04-17 06:54:41.802763,0.623035002
1776408881810455776,0.026,,,,2026-04-17 06:54:41.810455 UTC,2026-04-17 06:54:41.810455,0.630726792
1776408881818147566,0.039,,,,2026-04-17 06:54:41.818147 UTC,2026-04-17 06:54:41.818147,0.638418582
1776408881825839356,0.031,,,,2026-04-17 06:54:41.825839 UTC,2026-04-17 06:54:41.825839,0.646110372
1776408881833531146,0.017,,,,2026-04-17 06:54:41.833531 UTC,2026-04-17 06:54:41.833531,0.653802162
1776408881841222936,0.026,,,,2026-04-17 06:54:41.841222 UTC,2026-04-17 06:54:41.841222,0.661493952
1776408881848914726,0.036,,,,2026-04-17 06:54:41.848914 UTC,2026-04-17 06:54:41.848914,0.669185742
1776408881856606516,0.034,,,,2026-04-17 06:54:41.856606 UTC,2026-04-17 06:54:41.856606,0.676877532
1776408881864298306,0.041,,,,2026-04-17 06:54:41.864298 UTC,2026-04-17 06:54:41.864298,0.684569322
1776408881871990096,0.051,,,,2026-04-17 06:54:41.871990 UTC,2026-04-17 06:54:41.871990,0.692261112
1776408881879681886,0.049,,,,2026-04-17 06:54:41.879681 UTC,2026-04-17 06:54:41.879681,0.699952902
1776408881887373676,0.049,,,,2026-04-17 06:54:41.887373 UTC,2026-04-17 06:54:41.887373,0.707644692
1776408881895065466,0.058,,,,2026-04-17 06:54:41.895065 UTC,2026-04-17 06:54:41.895065,0.715336482
1776408881902757256,0.068,,,,2026-04-17 06:54:41.902757 UTC,2026-04-17 06:54:41.902757,0.723028272
1776408881910449046,0.09,,,,2026-04-17 06:54:41.910449 UTC,2026-04-17 06:54:41.910449,0.730720062
1776408881918140836,0.107,,,,2026-04-17 06:54:41.918140 UTC,2026-04-17 06:54:41.918140,0.738411852
1776408881925832626,0.098,,,,2026-04-17 06:54:41.925832 UTC,2026-04-17 06:54:41.925832,0.746103642
1776408881933524416,0.085,,,,2026-04-17 06:54:41.933524 UTC,2026-04-17 06:54:41.933524,0.753795432
1776408881941216206,0.088,,,,2026-04-17 06:54:41.941216 UTC,2026-04-17 06:54:41.941216,0.761487222
1776408881948907996,0.085,,,,2026-04-17 06:54:41.948907 UTC,2026-04-17 06:54:41.948907,0.769179012
1776408881956599786,0.071,,,,2026-04-17 06:54:41.956599 UTC,2026-04-17 06:54:41.956599,0.776870802
1776408881964291576,0.056,,,,2026-04-17 06:54:41.964291 UTC,2026-04-17 06:54:41.964291,0.784562592
1776408881971983366,0.053,,,,2026-04-17 06:54:41.971983 UTC,2026-04-17 06:54:41.971983,0.792254382
1776408881979675156,0.053,,,,2026-04-17 06:54:41.979675 UTC,2026-04-17 06:54:41.979675,0.799946172
1776408881987366946,0.053,,,,2026-04-17 06:54:41.987366 UTC,2026-04-17 06:54:41.987366,0.807637962
1776408881995058736,0.063,,,,2026-04-17 06:54:41.995058 UTC,2026-04-17 06:54:41.995058,0.815329752
1776408882002750526,0.078,,,,2026-04-17 06:54:42.002750 UTC,2026-04-17 06:54:42.002750,0.823021542
1776408882010442316,0.149,,,,2026-04-17 06:54:42.010442 UTC,2026-04-17 06:54:42.010442,0.830713332
1776408882018134106,0.512,,,,2026-04-17 06:54:42.018134 UTC,2026-04-17 06:54:42.018134,0.838405122
1776408882025825896,1.202,,,,2026-04-17 06:54:42.025825 UTC,2026-04-17 06:54:42.025825,0.846096912
1776408882033517686,1.386,,,,2026-04-17 06:54:42.033517 UTC,2026-04-17 06:54:42.033517,0.853788702
1776408882041209476,0.117,,,,2026-04-17 06:54:42.041209 UTC,2026-04-17 06:54:42.041209,0.861480492
1776408882048901266,-1.501,,,,2026-04-17 06:54:42.048901 UTC,2026-04-17 06:54:42.048901,0.869172282
1776408882056593056,-1.575,,,,2026-04-17 06:54:42.056593 UTC,2026-04-17 06:54:42.056593,0.876864072
1776408882064284846,-0.733,,,,2026-04-17 06:54:42.064284 UTC,2026-04-17 06:54:42.064284,0.884555862
1776408882071976636,-0.363,,,,2026-04-17 06:54:42.071976 UTC,2026-04-17 06:54:42.071976,0.892247652
1776408882079668426,-0.11,,,,2026-04-17 06:54:42.079668 UTC,2026-04-17 06:54:42.079668,0.899939442
1776408882087360216,0.255,,,,2026-04-17 06:54:42.087360 UTC,2026-04-17 06:54:42.087360,0.907631232
1776408882095052006,0.284,,,,2026-04-17 06:54:42.095052 UTC,2026-04-17 06:54:42.095052,0.915323022
1776408882102743796,0.201,,,,2026-04-17 06:54:42.102743 UTC,2026-04-17 06:54:42.102743,0.923014812
1776408882110435586,0.277,,,,2026-04-17 06:54:42.110435 UTC,2026-04-17 06:54:42.110435,0.930706602
1776408882118127376,0.311,,,,2026-04-17 06:54:42.118127 UTC,2026-04-17 06:54:42.118127,0.938398392
1776408882125819166,0.282,,,,2026-04-17 06:54:42.125819 UTC,2026-04-17 06:54:42.125819,0.946090182
1776408882133510956,0.309,,,,2026-04-17 06:54:42.133510 UTC,2026-04-17 06:54:42.133510,0.953781972
1776408882141202746,0.328,,,,2026-04-17 06:54:42.141202 UTC,2026-04-17 06:54:42.141202,0.961473762
1776408882148894536,0.314,,,,2026-04-17 06:54:42.148894 UTC,2026-04-17 06:54:42.148894,0.969165552
1776408882156586326,0.314,,,,2026-04-17 06:54:42.156586 UTC,2026-04-17 06:54:42.156586,0.976857342
1776408882164278116,0.321,,,,2026-04-17 06:54:42.164278 UTC,2026-04-17 06:54:42.164278,0.984549132
1776408882171969906,0.323,,,,2026-04-17 06:54:42.171969 UTC,2026-04-17 06:54:42.171969,0.992240922
1776408882179661696,0.35,,,,2026-04-17 06:54:42.179661 UTC,2026-04-17 06:54:42.179661,0.999932712
1776408882187353486,0.377,,,,2026-04-17 06:54:42.187353 UTC,2026-04-17 06:54:42.187353,1.007624502
1776408882195045276,0.365,,,,2026-04-17 06:54:42.195045 UTC,2026-04-17 06:54:42.195045,1.015316292
1776408882202737066,0.358,,,,2026-04-17 06:54:42.202737 UTC,2026-04-17 06:54:42.202737,1.023008082
1776408882210428856,0.38,,,,2026-04-17 06:54:42.210428 UTC,2026-04-17 06:54:42.210428,1.030699872
1776408882218120646,0.397,,,,2026-04-17 06:54:42.218120 UTC,2026-04-17 06:54:42.218120,1.038391662
1776408882225812436,0.399,,,,2026-04-17 06:54:42.225812 UTC,2026-04-17 06:54:42.225812,1.046083452
1776408882233504226,0.399,,,,2026-04-17 06:54:42.233504 UTC,2026-04-17 06:54:42.233504,1.053775242
1776408882241196016,0.409,,,,2026-04-17 06:54:42.241196 UTC,2026-04-17 06:54:42.241196,1.061467032
1776408882248887806,0.426,,,,2026-04-17 06:54:42.248887 UTC,2026-04-17 06:54:42.248887,1.069158822
1776408882256579596,0.419,,,,2026-04-17 06:54:42.256579 UTC,2026-04-17 06:54:42.256579,1.076850612
1776408882264271386,0.387,,,,2026-04-17 06:54:42.264271 UTC,2026-04-17 06:54:42.264271,1.084542402
1776408882271963176,0.353,,,,2026-04-17 06:54:42.271963 UTC,2026-04-17 06:54:42.271963,1.092234192
1776408882279654966,0.331,,,,2026-04-17 06:54:42.279654 UTC,2026-04-17 06:54:42.279654,1.099925982
1776408882287346756,0.306,,,,2026-04-17 06:54:42.287346 UTC,2026-04-17 06:54:42.287346,1.107617772
1776408882295038546,0.264,,,,2026-04-17 06:54:42.295038 UTC,2026-04-17 06:54:42.295038,1.115309562
1776408882302730348,0.211,,,,2026-04-17 06:54:42.302730 UTC,2026-04-17 06:54:42.302730,1.123001364
1776408882310422138,0.157,,,,2026-04-17 06:54:42.310422 UTC,2026-04-17 06:54:42.310422,1.130693154
1776408882318113928,0.107,,,,2026-04-17 06:54:42.318113 UTC,2026-04-17 06:54:42.318113,1.138384944
1776408882325805718,0.073,,,,2026-04-17 06:54:42.325805 UTC,2026-04-17 06:54:42.325805,1.146076734
1776408882333497508,0.039,,,,2026-04-17 06:54:42.333497 UTC,2026-04-17 06:54:42.333497,1.153768524
1776408882341189298,0.009,,,,2026-04-17 06:54:42.341189 UTC,2026-04-17 06:54:42.341189,1.161460314
1776408882348881088,0.0,,,,2026-04-17 06:54:42.348881 UTC,2026-04-17 06:54:42.348881,1.169152104
1776408882356572878,-0.004,,,,2026-04-17 06:54:42.356572 UTC,2026-04-17 06:54:42.356572,1.176843894
1776408882364264668,-0.017,,,,2026-04-17 06:54:42.364264 UTC,2026-04-17 06:54:42.364264,1.184535684
1776408882371956458,-0.022,,,,2026-04-17 06:54:42.371956 UTC,2026-04-17 06:54:42.371956,1.192227474
1776408882379648248,-0.019,,,,2026-04-17 06:54:42.379648 UTC,2026-04-17 06:54:42.379648,1.199919264
1776408882387340038,-0.012,,,,2026-04-17 06:54:42.387340 UTC,2026-04-17 06:54:42.387340,1.207611054
1776408882395031828,0.002,,,,2026-04-17 06:54:42.395031 UTC,2026-04-17 06:54:42.395031,1.215302844
1776408882402723618,0.009,,,,2026-04-17 06:54:42.402723 UTC,2026-04-17 06:54:42.402723,1.222994634
1776408882410415408,0.004,,,,2026-04-17 06:54:42.410415 UTC,2026-04-17 06:54:42.410415,1.230686424
1776408882418107198,0.007,,,,2026-04-17 06:54:42.418107 UTC,2026-04-17 06:54:42.418107,1.238378214
1776408882425798988,0.014,,,,2026-04-17 06:54:42.425798 UTC,2026-04-17 06:54:42.425798,1.246070004
1776408882433490778,0.017,,,,2026-04-17 06:54:42.433490 UTC,2026-04-17 06:54:42.433490,1.253761794
1776408882441182568,0.024,,,,2026-04-17 06:54:42.441182 UTC,2026-04-17 06:54:42.441182,1.261453584
1776408882448874358,0.034,,,,2026-04-17 06:54:42.448874 UTC,2026-04-17 06:54:42.448874,1.269145374
1776408882456566148,0.031,,,,2026-04-17 06:54:42.456566 UTC,2026-04-17 06:54:42.456566,1.276837164
1776408882464257938,0.029,,,,2026-04-17 06:54:42.464257 UTC,2026-04-17 06:54:42.464257,1.284528954
1776408882471949728,0.034,,,,2026-04-17 06:54:42.471949 UTC,2026-04-17 06:54:42.471949,1.292220744
1776408882479641518,0.031,,,,2026-04-17 06:54:42.479641 UTC,2026-04-17 06:54:42.479641,1.299912534
1776408882487333308,0.022,,,,2026-04-17 06:54:42.487333 UTC,2026-04-17 06:54:42.487333,1.307604324
1776408882495025098,0.029,,,,2026-04-17 06:54:42.495025 UTC,2026-04-17 06:54:42.495025,1.315296114
1776408882502716888,0.044,,,,2026-04-17 06:54:42.502716 UTC,2026-04-17 06:54:42.502716,1.322987904
1776408882510408678,0.036,,,,2026-04-17 06:54:42.510408 UTC,2026-04-17 06:54:42.510408,1.330679694
1776408882518100468,0.026,,,,2026-04-17 06:54:42.518100 UTC,2026-04-17 06:54:42.518100,1.338371484
1776408882525792258,0.034,,,,2026-04-17 06:54:42.525792 UTC,2026-04-17 06:54:42.525792,1.346063274
1776408882533484048,0.031,,,,2026-04-17 06:54:42.533484 UTC,2026-04-17 06:54:42.533484,1.353755064
1776408882541175838,0.026,,,,2026-04-17 06:54:42.541175 UTC,2026-04-17 06:54:42.541175,1.361446854
1776408882548867628,0.039,,,,2026-04-17 06:54:42.548867 UTC,2026-04-17 06:54:42.548867,1.369138644
1776408882556559418,0.044,,,,2026-04-17 06:54:42.556559 UTC,2026-04-17 06:54:42.556559,1.376830434
1776408882564251208,0.039,,,,2026-04-17 06:54:42.564251 UTC,2026-04-17 06:54:42.564251,1.384522224
1776408882571942998,0.036,,,,2026-04-17 06:54:42.571942 UTC,2026-04-17 06:54:42.571942,1.392214014
1776408882579634788,0.044,,,,2026-04-17 06:54:42.579634 UTC,2026-04-17 06:54:42.579634,1.399905804
1776408882587326578,0.051,,805.0,,2026-04-17 06:54:42.587326 UTC,2026-04-17 06:54:42.587326,1.407597594
1776408882595018368,0.049,,,,2026-04-17 06:54:42.595018 UTC,2026-04-17 06:54:42.595018,1.415289384
1776408882602710158,0.049,,,,2026-04-17 06:54:42.602710 UTC,2026-04-17 06:54:42.602710,1.422981174
1776408882610401948,0.056,,,,2026-04-17 06:54:42.610401 UTC,2026-04-17 06:54:42.610401,1.430672964
1776408882618093738,0.061,,,,2026-04-17 06:54:42.618093 UTC,2026-04-17 06:54:42.618093,1.438364754
1776408882625785528,0.063,,,,2026-04-17 06:54:42.625785 UTC,2026-04-17 06:54:42.625785,1.446056544
1776408882633477318,0.068,,,,2026-04-17 06:54:42.633477 UTC,2026-04-17 06:54:42.633477,1.453748334
1776408882641169108,0.073,,,,2026-04-17 06:54:42.641169 UTC,2026-04-17 06:54:42.641169,1.461440124
1776408882648860898,0.071,,,,2026-04-17 06:54:42.648860 UTC,2026-04-17 06:54:42.648860,1.469131914
1776408882656552688,0.068,,,,2026-04-17 06:54:42.656552 UTC,2026-04-17 06:54:42.656552,1.476823704
1776408882664244478,0.071,,,,2026-04-17 06:54:42.664244 UTC,2026-04-17 06:54:42.664244,1.484515494
1776408882671936268,0.076,,,,2026-04-17 06:54:42.671936 UTC,2026-04-17 06:54:42.671936,1.492207284
1776408882679628058,0.078,,,,2026-04-17 06:54:42.679628 UTC,2026-04-17 06:54:42.679628,1.499899074
1776408882687319848,0.08,,,,2026-04-17 06:54:42.687319 UTC,2026-04-17 06:54:42.687319,1.507590864
1776408882695011638,0.085,,,,2026-04-17 06:54:42.695011 UTC,2026-04-17 06:54:42.695011,1.515282654
1776408882702703428,0.078,,,,2026-04-17 06:54:42.702703 UTC,2026-04-17 06:54:42.702703,1.522974444
1776408882710395218,0.073,,,,2026-04-17 06:54:42.710395 UTC,2026-04-17 06:54:42.710395,1.530666234
1776408882718087008,0.08,,,,2026-04-17 06:54:42.718087 UTC,2026-04-17 06:54:42.718087,1.538358024
1776408882725778798,0.09,,,,2026-04-17 06:54:42.725778 UTC,2026-04-17 06:54:42.725778,1.546049814
1776408882733470588,0.103,,,,2026-04-17 06:54:42.733470 UTC,2026-04-17 06:54:42.733470,1.553741604
1776408882741162378,0.122,,,,2026-04-17 06:54:42.741162 UTC,2026-04-17 06:54:42.741162,1.561433394
1776408882748854168,0.122,,,,2026-04-17 06:54:42.748854 UTC,2026-04-17 06:54:42.748854,1.569125184
1776408882756545958,0.107,,,,2026-04-17 06:54:42.756545 UTC,2026-04-17 06:54:42.756545,1.576816974
1776408882764237748,0.11,,,,2026-04-17 06:54:42.764237 UTC,2026-04-17 06:54:42.764237,1.584508764
1776408882771929538,0.112,,,,2026-04-17 06:54:42.771929 UTC,2026-04-17 06:54:42.771929,1.592200554
1776408882779621328,0.098,,,,2026-04-17 06:54:42.779621 UTC,2026-04-17 06:54:42.779621,1.599892344
1776408882787313118,0.085,,,,2026-04-17 06:54:42.787313 UTC,2026-04-17 06:54:42.787313,1.607584134
1776408882795004908,0.071,,,,2026-04-17 06:54:42.795004 UTC,2026-04-17 06:54:42.795004,1.615275924
1776408882802696698,0.063,,,,2026-04-17 06:54:42.802696 UTC,2026-04-17 06:54:42.802696,1.622967714
1776408882810388488,0.076,,,,2026-04-17 06:54:42.810388 UTC,2026-04-17 06:54:42.810388,1.630659504
1776408882818080278,0.085,,,,2026-04-17 06:54:42.818080 UTC,2026-04-17 06:54:42.818080,1.638351294
1776408882825772068,0.08,,,,2026-04-17 06:54:42.825772 UTC,2026-04-17 06:54:42.825772,1.646043084
1776408882833463858,0.085,,,,2026-04-17 06:54:42.833463 UTC,2026-04-17 06:54:42.833463,1.653734874
1776408882841155648,0.166,,,,2026-04-17 06:54:42.841155 UTC,2026-04-17 06:54:42.841155,1.661426664
1776408882848847438,0.537,,,,2026-04-17 06:54:42.848847 UTC,2026-04-17 06:54:42.848847,1.669118454
1776408882856539228,1.212,,,,2026-04-17 06:54:42.856539 UTC,2026-04-17 06:54:42.856539,1.676810244
1776408882864231030,1.354,76.0,,,2026-04-17 06:54:42.864231 UTC,2026-04-17 06:54:42.864231,1.684502046
1776408882871922820,0.088,,,,2026-04-17 06:54:42.871922 UTC,2026-04-17 06:54:42.871922,1.692193836
1776408882879614610,-1.464,,,,2026-04-17 06:54:42.879614 UTC,2026-04-17 06:54:42.879614,1.699885626
1776408882887306400,-1.508,,,,2026-04-17 06:54:42.887306 UTC,2026-04-17 06:54:42.887306,1.707577416
1776408882894998190,-0.669,,,,2026-04-17 06:54:42.894998 UTC,2026-04-17 06:54:42.894998,1.715269206
1776408882902689980,-0.287,,,,2026-04-17 06:54:42.902689 UTC,2026-04-17 06:54:42.902689,1.722960996
1776408882910381770,-0.056,,,,2026-04-17 06:54:42.910381 UTC,2026-04-17 06:54:42.910381,1.730652786
1776408882918073560,0.247,,,,2026-04-17 06:54:42.918073 UTC,2026-04-17 06:54:42.918073,1.738344576
1776408882925765350,0.262,,,,2026-04-17 06:54:42.925765 UTC,2026-04-17 06:54:42.925765,1.746036366
1776408882933457140,0.198,,,,2026-04-17 06:54:42.933457 UTC,2026-04-17 06:54:42.933457,1.753728156
1776408882941148930,0.274,,,,2026-04-17 06:54:42.941148 UTC,2026-04-17 06:54:42.941148,1.761419946
1776408882948840720,0.301,,,,2026-04-17 06:54:42.948840 UTC,2026-04-17 06:54:42.948840,1.769111736
1776408882956532510,0.267,,,,2026-04-17 06:54:42.956532 UTC,2026-04-17 06:54:42.956532,1.776803526
1776408882964224300,0.279,,,,2026-04-17 06:54:42.964224 UTC,2026-04-17 06:54:42.964224,1.784495316
1776408882971916090,0.294,,,,2026-04-17 06:54:42.971916 UTC,2026-04-17 06:54:42.971916,1.792187106
1776408882979607880,0.282,,,,2026-04-17 06:54:42.979607 UTC,2026-04-17 06:54:42.979607,1.799878896
1776408882987299670,0.282,,,,2026-04-17 06:54:42.987299 UTC,2026-04-17 06:54:42.987299,1.807570686
1776408882994991460,0.296,,,,2026-04-17 06:54:42.994991 UTC,2026-04-17 06:54:42.994991,1.815262476
1776408883002683250,0.301,,,,2026-04-17 06:54:43.002683 UTC,2026-04-17 06:54:43.002683,1.822954266
1776408883010375040,0.306,,,,2026-04-17 06:54:43.010375 UTC,2026-04-17 06:54:43.010375,1.830646056
1776408883018066830,0.316,,,,2026-04-17 06:54:43.018066 UTC,2026-04-17 06:54:43.018066,1.838337846
1776408883025758620,0.331,,,,2026-04-17 06:54:43.025758 UTC,2026-04-17 06:54:43.025758,1.846029636
1776408883033450410,0.348,,,,2026-04-17 06:54:43.033450 UTC,2026-04-17 06:54:43.033450,1.853721426
1776408883041142200,0.358,,,,2026-04-17 06:54:43.041142 UTC,2026-04-17 06:54:43.041142,1.861413216
1776408883048833990,0.37,,,,2026-04-17 06:54:43.048833 UTC,2026-04-17 06:54:43.048833,1.869105006
1776408883056525780,0.385,,,,2026-04-17 06:54:43.056525 UTC,2026-04-17 06:54:43.056525,1.876796796
1776408883064217570,0.397,,,,2026-04-17 06:54:43.064217 UTC,2026-04-17 06:54:43.064217,1.884488586
1776408883071909360,0.399,,,,2026-04-17 06:54:43.071909 UTC,2026-04-17 06:54:43.071909,1.892180376
1776408883079601150,0.395,,,,2026-04-17 06:54:43.079601 UTC,2026-04-17 06:54:43.079601,1.899872166
1776408883087292940,0.385,,,,2026-04-17 06:54:43.087292 UTC,2026-04-17 06:54:43.087292,1.907563956
1776408883094984730,0.363,,,,2026-04-17 06:54:43.094984 UTC,2026-04-17 06:54:43.094984,1.915255746
1776408883102676520,0.331,,,,2026-04-17 06:54:43.102676 UTC,2026-04-17 06:54:43.102676,1.922947536
1776408883110368310,0.296,,,,2026-04-17 06:54:43.110368 UTC,2026-04-17 06:54:43.110368,1.930639326
1776408883118060100,0.255,,,,2026-04-17 06:54:43.118060 UTC,2026-04-17 06:54:43.118060,1.938331116
1776408883125751890,0.206,,,,2026-04-17 06:54:43.125751 UTC,2026-04-17 06:54:43.125751,1.946022906
1776408883133443680,0.169,,,,2026-04-17 06:54:43.133443 UTC,2026-04-17 06:54:43.133443,1.953714696
1776408883141135470,0.142,,,,2026-04-17 06:54:43.141135 UTC,2026-04-17 06:54:43.141135,1.961406486
1776408883148827260,0.1,,,,2026-04-17 06:54:43.148827 UTC,2026-04-17 06:54:43.148827,1.969098276
1776408883156519050,0.061,,,,2026-04-17 06:54:43.156519 UTC,2026-04-17 06:54:43.156519,1.976790066
1776408883164210840,0.036,,,,2026-04-17 06:54:43.164210 UTC,2026-04-17 06:54:43.164210,1.984481856
1776408883171902630,0.019,,,,2026-04-17 06:54:43.171902 UTC,2026-04-17 06:54:43.171902,1.992173646
1776408883179594420,0.004,,,,2026-04-17 06:54:43.179594 UTC,2026-04-17 06:54:43.179594,1.999865436
1776408883187286210,-0.004,,,,2026-04-17 06:54:43.187286 UTC,2026-04-17 06:54:43.187286,2.007557226
1776408883194978000,-0.022,,,,2026-04-17 06:54:43.194978 UTC,2026-04-17 06:54:43.194978,2.015249016
1776408883202669790,-0.041,,,,2026-04-17 06:54:43.202669 UTC,2026-04-17 06:54:43.202669,2.022940806
1776408883210361580,-0.051,,,,2026-04-17 06:54:43.210361 UTC,2026-04-17 06:54:43.210361,2.030632596
1776408883218053370,-0.044,,,,2026-04-17 06:54:43.218053 UTC,2026-04-17 06:54:43.218053,2.038324386
1776408883225745160,-0.034,,,,2026-04-17 06:54:43.225745 UTC,2026-04-17 06:54:43.225745,2.046016176
1776408883233436950,-0.031,,,,2026-04-17 06:54:43.233436 UTC,2026-04-17 06:54:43.233436,2.053707966
1776408883241128740,-0.029,,,,2026-04-17 06:54:43.241128 UTC,2026-04-17 06:54:43.241128,2.061399756
1776408883248820530,-0.017,,,,2026-04-17 06:54:43.248820 UTC,2026-04-17 06:54:43.248820,2.069091546
1776408883256512320,-0.004,,,,2026-04-17 06:54:43.256512 UTC,2026-04-17 06:54:43.256512,2.076783336
1776408883264204110,0.002,,,,2026-04-17 06:54:43.264204 UTC,2026-04-17 06:54:43.264204,2.084475126
1776408883271895900,0.012,,,,2026-04-17 06:54:43.271895 UTC,2026-04-17 06:54:43.271895,2.092166916
1776408883279587690,0.019,,,,2026-04-17 06:54:43.279587 UTC,2026-04-17 06:54:43.279587,2.099858706
1776408883287279480,0.019,,,,2026-04-17 06:54:43.287279 UTC,2026-04-17 06:54:43.287279,2.107550496
1776408883294971270,0.017,,,,2026-04-17 06:54:43.294971 UTC,2026-04-17 06:54:43.294971,2.115242286
1776408883302663060,0.022,,,,2026-04-17 06:54:43.302663 UTC,2026-04-17 06:54:43.302663,2.122934076
1776408883310354850,0.026,,,,2026-04-17 06:54:43.310354 UTC,2026-04-17 06:54:43.310354,2.130625866
1776408883318046640,0.024,,,,2026-04-17 06:54:43.318046 UTC,2026-04-17 06:54:43.318046,2.138317656
1776408883325738430,0.019,,,,2026-04-17 06:54:43.325738 UTC,2026-04-17 06:54:43.325738,2.146009446
1776408883333430220,0.022,,,,2026-04-17 06:54:43.333430 UTC,2026-04-17 06:54:43.333430,2.153701236
1776408883341122010,0.024,,,,2026-04-17 06:54:43.341122 UTC,2026-04-17 06:54:43.341122,2.161393026
1776408883348813800,0.024,,,,2026-04-17 06:54:43.348813 UTC,2026-04-17 06:54:43.348813,2.169084816
1776408883356505590,0.022,,,,2026-04-17 06:54:43.356505 UTC,2026-04-17 06:54:43.356505,2.176776606
1776408883364197380,0.024,,,,2026-04-17 06:54:43.364197 UTC,2026-04-17 06:54:43.364197,2.184468396
1776408883371889170,0.029,,,,2026-04-17 06:54:43.371889 UTC,2026-04-17 06:54:43.371889,2.192160186
1776408883379580960,0.029,,,,2026-04-17 06:54:43.379580 UTC,2026-04-17 06:54:43.379580,2.199851976
1776408883387272750,0.029,,801.0,,2026-04-17 06:54:43.387272 UTC,2026-04-17 06:54:43.387272,2.207543766
1776408883394964540,0.029,,,,2026-04-17 06:54:43.394964 UTC,2026-04-17 06:54:43.394964,2.215235556
1776408883402656330,0.029,,,,2026-04-17 06:54:43.402656 UTC,2026-04-17 06:54:43.402656,2.222927346
1776408883410348120,0.026,,,,2026-04-17 06:54:43.410348 UTC,2026-04-17 06:54:43.410348,2.230619136
1776408883418039910,0.034,,,,2026-04-17 06:54:43.418039 UTC,2026-04-17 06:54:43.418039,2.238310926
1776408883425731712,0.044,76.0,,,2026-04-17 06:54:43.425731 UTC,2026-04-17 06:54:43.425731,2.246002728
1776408883433423502,0.041,,,,2026-04-17 06:54:43.433423 UTC,2026-04-17 06:54:43.433423,2.253694518
1776408883441115292,0.041,,,,2026-04-17 06:54:43.441115 UTC,2026-04-17 06:54:43.441115,2.261386308
1776408883448807082,0.046,,,,2026-04-17 06:54:43.448807 UTC,2026-04-17 06:54:43.448807,2.269078098
1776408883456498872,0.051,,,,2026-04-17 06:54:43.456498 UTC,2026-04-17 06:54:43.456498,2.276769888
1776408883464190662,0.046,,,,2026-04-17 06:54:43.464190 UTC,2026-04-17 06:54:43.464190,2.284461678
1776408883471882452,0.046,,,,2026-04-17 06:54:43.471882 UTC,2026-04-17 06:54:43.471882,2.292153468
1776408883479574242,0.044,,,,2026-04-17 06:54:43.479574 UTC,2026-04-17 06:54:43.479574,2.299845258
1776408883487266032,0.039,,,,2026-04-17 06:54:43.487266 UTC,2026-04-17 06:54:43.487266,2.307537048
1776408883494957822,0.039,,,,2026-04-17 06:54:43.494957 UTC,2026-04-17 06:54:43.494957,2.315228838
1776408883502649612,0.046,,,,2026-04-17 06:54:43.502649 UTC,2026-04-17 06:54:43.502649,2.322920628
1776408883510341402,0.058,,,,2026-04-17 06:54:43.510341 UTC,2026-04-17 06:54:43.510341,2.330612418
1776408883518033192,0.063,,,,2026-04-17 06:54:43.518033 UTC,2026-04-17 06:54:43.518033,2.338304208
1776408883525724982,0.063,,,,2026-04-17 06:54:43.525724 UTC,2026-04-17 06:54:43.525724,2.345995998
1776408883533416772,0.061,,,,2026-04-17 06:54:43.533416 UTC,2026-04-17 06:54:43.533416,2.353687788
1776408883541108562,0.066,,,,2026-04-17 06:54:43.541108 UTC,2026-04-17 06:54:43.541108,2.361379578
1776408883548800352,0.083,,,,2026-04-17 06:54:43.548800 UTC,2026-04-17 06:54:43.548800,2.369071368
1776408883556492142,0.098,,,,2026-04-17 06:54:43.556492 UTC,2026-04-17 06:54:43.556492,2.376763158
1776408883564183932,0.103,,,,2026-04-17 06:54:43.564183 UTC,2026-04-17 06:54:43.564183,2.384454948
1776408883571875722,0.1,,,,2026-04-17 06:54:43.571875 UTC,2026-04-17 06:54:43.571875,2.392146738
1776408883579567512,0.088,,,,2026-04-17 06:54:43.579567 UTC,2026-04-17 06:54:43.579567,2.399838528
1776408883587259302,0.068,,,,2026-04-17 06:54:43.587259 UTC,2026-04-17 06:54:43.587259,2.407530318
1776408883594951092,0.056,,,,2026-04-17 06:54:43.594951 UTC,2026-04-17 06:54:43.594951,2.415222108
1776408883602642882,0.051,,,,2026-04-17 06:54:43.602642 UTC,2026-04-17 06:54:43.602642,2.422913898
1776408883610334672,0.051,,,,2026-04-17 06:54:43.610334 UTC,2026-04-17 06:54:43.610334,2.430605688
1776408883618026462,0.058,,,,2026-04-17 06:54:43.618026 UTC,2026-04-17 06:54:43.618026,2.438297478
1776408883625718252,0.071,,,,2026-04-17 06:54:43.625718 UTC,2026-04-17 06:54:43.625718,2.445989268
1776408883633410042,0.073,,,,2026-04-17 06:54:43.633410 UTC,2026-04-17 06:54:43.633410,2.453681058
1776408883641101832,0.066,,,,2026-04-17 06:54:43.641101 UTC,2026-04-17 06:54:43.641101,2.461372848
1776408883648793622,0.13,,,,2026-04-17 06:54:43.648793 UTC,2026-04-17 06:54:43.648793,2.469064638
1776408883656485412,0.441,,,,2026-04-17 06:54:43.656485 UTC,2026-04-17 06:54:43.656485,2.476756428
1776408883664177202,1.084,,,,2026-04-17 06:54:43.664177 UTC,2026-04-17 06:54:43.664177,2.484448218
1776408883671868992,1.388,,,,2026-04-17 06:54:43.671868 UTC,2026-04-17 06:54:43.671868,2.492140008
1776408883679560782,0.338,,,,2026-04-17 06:54:43.679560 UTC,2026-04-17 06:54:43.679560,2.499831798
1776408883687252572,-1.307,,,,2026-04-17 06:54:43.687252 UTC,2026-04-17 06:54:43.687252,2.507523588
1776408883694944362,-1.597,,,,2026-04-17 06:54:43.694944 UTC,2026-04-17 06:54:43.694944,2.515215378
1776408883702636152,-0.802,,,,2026-04-17 06:54:43.702636 UTC,2026-04-17 06:54:43.702636,2.522907168
1776408883710327942,-0.39,,,,2026-04-17 06:54:43.710327 UTC,2026-04-17 06:54:43.710327,2.530598958
1776408883718019732,-0.188,,,,2026-04-17 06:54:43.718019 UTC,2026-04-17 06:54:43.718019,2.538290748
1776408883725711522,0.171,,,,2026-04-17 06:54:43.725711 UTC,2026-04-17 06:54:43.725711,2.545982538
1776408883733403312,0.264,,,,2026-04-17 06:54:43.733403 UTC,2026-04-17 06:54:43.733403,2.553674328
1776408883741095102,0.181,,,,2026-04-17 06:54:43.741095 UTC,2026-04-17 06:54:43.741095,2.561366118
1776408883748786892,0.235,,,,2026-04-17 06:54:43.748786 UTC,2026-04-17 06:54:43.748786,2.569057908
1776408883756478682,0.289,,,,2026-04-17 06:54:43.756478 UTC,2026-04-17 06:54:43.756478,2.576749698
1776408883764170472,0.262,,,,2026-04-17 06:54:43.764170 UTC,2026-04-17 06:54:43.764170,2.584441488
1776408883771862262,0.267,,,,2026-04-17 06:54:43.771862 UTC,2026-04-17 06:54:43.771862,2.592133278
1776408883779554052,0.289,,,,2026-04-17 06:54:43.779554 UTC,2026-04-17 06:54:43.779554,2.599825068
1776408883787245842,0.284,,,,2026-04-17 06:54:43.787245 UTC,2026-04-17 06:54:43.787245,2.607516858
1776408883794937632,0.289,,,,2026-04-17 06:54:43.794937 UTC,2026-04-17 06:54:43.794937,2.615208648
1776408883802629422,0.311,,,,2026-04-17 06:54:43.802629 UTC,2026-04-17 06:54:43.802629,2.622900438
1776408883810321212,0.318,,,,2026-04-17 06:54:43.810321 UTC,2026-04-17 06:54:43.810321,2.630592228
1776408883818013002,0.316,,,,2026-04-17 06:54:43.818013 UTC,2026-04-17 06:54:43.818013,2.638284018
1776408883825704792,0.321,,,,2026-04-17 06:54:43.825704 UTC,2026-04-17 06:54:43.825704,2.645975808
1776408883833396582,0.338,,,,2026-04-17 06:54:43.833396 UTC,2026-04-17 06:54:43.833396,2.653667598
1776408883841088372,0.353,,,,2026-04-17 06:54:43.841088 UTC,2026-04-17 06:54:43.841088,2.661359388
1776408883848780162,0.363,,,,2026-04-17 06:54:43.848780 UTC,2026-04-17 06:54:43.848780,2.669051178
1776408883856471952,0.375,,,,2026-04-17 06:54:43.856471 UTC,2026-04-17 06:54:43.856471,2.676742968
1776408883864163742,0.385,,,,2026-04-17 06:54:43.864163 UTC,2026-04-17 06:54:43.864163,2.684434758
1776408883871855532,0.387,,,,2026-04-17 06:54:43.871855 UTC,2026-04-17 06:54:43.871855,2.692126548
1776408883879547322,0.392,,,,2026-04-17 06:54:43.879547 UTC,2026-04-17 06:54:43.879547,2.699818338
1776408883887239112,0.399,,,,2026-04-17 06:54:43.887239 UTC,2026-04-17 06:54:43.887239,2.707510128
1776408883894930902,0.395,,,,2026-04-17 06:54:43.894930 UTC,2026-04-17 06:54:43.894930,2.715201918
1776408883902622692,0.368,,,,2026-04-17 06:54:43.902622 UTC,2026-04-17 06:54:43.902622,2.722893708
1776408883910314482,0.336,,,,2026-04-17 06:54:43.910314 UTC,2026-04-17 06:54:43.910314,2.730585498
1776408883918006272,0.299,,,,2026-04-17 06:54:43.918006 UTC,2026-04-17 06:54:43.918006,2.738277288
1776408883925698062,0.26,,,,2026-04-17 06:54:43.925698 UTC,2026-04-17 06:54:43.925698,2.745969078
1776408883933389852,0.218,,,,2026-04-17 06:54:43.933389 UTC,2026-04-17 06:54:43.933389,2.753660868
1776408883941081642,0.179,,,,2026-04-17 06:54:43.941081 UTC,2026-04-17 06:54:43.941081,2.761352658
1776408883948773432,0.132,,,,2026-04-17 06:54:43.948773 UTC,2026-04-17 06:54:43.948773,2.769044448
1776408883956465222,0.085,,,,2026-04-17 06:54:43.956465 UTC,2026-04-17 06:54:43.956465,2.776736238
1776408883964157012,0.053,,,,2026-04-17 06:54:43.964157 UTC,2026-04-17 06:54:43.964157,2.784428028
1776408883971848802,0.031,,,,2026-04-17 06:54:43.971848 UTC,2026-04-17 06:54:43.971848,2.792119818
1776408883979540592,0.012,,,,2026-04-17 06:54:43.979540 UTC,2026-04-17 06:54:43.979540,2.799811608
1776408883987232394,-0.002,,,,2026-04-17 06:54:43.987232 UTC,2026-04-17 06:54:43.987232,2.80750341
1776408883994924184,-0.007,,,,2026-04-17 06:54:43.994924 UTC,2026-04-17 06:54:43.994924,2.8151952
1776408884002615974,-0.014,,,,2026-04-17 06:54:44.002615 UTC,2026-04-17 06:54:44.002615,2.82288699
1776408884010307764,-0.022,,,,2026-04-17 06:54:44.010307 UTC,2026-04-17 06:54:44.010307,2.83057878
1776408884017999554,-0.024,,,,2026-04-17 06:54:44.017999 UTC,2026-04-17 06:54:44.017999,2.83827057
1776408884025691344,-0.019,,,,2026-04-17 06:54:44.025691 UTC,2026-04-17 06:54:44.025691,2.84596236
1776408884033383134,-0.007,,,,2026-04-17 06:54:44.033383 UTC,2026-04-17 06:54:44.033383,2.85365415
1776408884041074924,-0.004,,,,2026-04-17 06:54:44.041074 UTC,2026-04-17 06:54:44.041074,2.86134594
1776408884048766714,-0.002,,,,2026-04-17 06:54:44.048766 UTC,2026-04-17 06:54:44.048766,2.86903773
1776408884056458504,0.009,,,,2026-04-17 06:54:44.056458 UTC,2026-04-17 06:54:44.056458,2.87672952
1776408884064150294,0.019,,,,2026-04-17 06:54:44.064150 UTC,2026-04-17 06:54:44.064150,2.88442131
1776408884071842084,0.022,,,,2026-04-17 06:54:44.071842 UTC,2026-04-17 06:54:44.071842,2.8921131
1776408884079533874,0.024,,,,2026-04-17 06:54:44.079533 UTC,2026-04-17 06:54:44.079533,2.89980489
1776408884087225664,0.029,,,,2026-04-17 06:54:44.087225 UTC,2026-04-17 06:54:44.087225,2.90749668
1776408884094917454,0.034,,,,2026-04-17 06:54:44.094917 UTC,2026-04-17 06:54:44.094917,2.91518847
1776408884102609244,0.044,,,,2026-04-17 06:54:44.102609 UTC,2026-04-17 06:54:44.102609,2.92288026
1776408884110301034,0.041,,,,2026-04-17 06:54:44.110301 UTC,2026-04-17 06:54:44.110301,2.93057205
1776408884117992824,0.024,,,,2026-04-17 06:54:44.117992 UTC,2026-04-17 06:54:44.117992,2.93826384
1776408884125684614,0.019,,,,2026-04-17 06:54:44.125684 UTC,2026-04-17 06:54:44.125684,2.94595563
1776408884133376404,0.024,,,,2026-04-17 06:54:44.133376 UTC,2026-04-17 06:54:44.133376,2.95364742
1776408884141068194,0.024,,,,2026-04-17 06:54:44.141068 UTC,2026-04-17 06:54:44.141068,2.96133921
1776408884148759984,0.024,,,,2026-04-17 06:54:44.148759 UTC,2026-04-17 06:54:44.148759,2.969031
1776408884156451774,0.026,,,,2026-04-17 06:54:44.156451 UTC,2026-04-17 06:54:44.156451,2.97672279
1776408884164143564,0.026,,,,2026-04-17 06:54:44.164143 UTC,2026-04-17 06:54:44.164143,2.98441458
1776408884171835354,0.022,,,,2026-04-17 06:54:44.171835 UTC,2026-04-17 06:54:44.171835,2.99210637
1776408884179527144,0.024,,,,2026-04-17 06:54:44.179527 UTC,2026-04-17 06:54:44.179527,2.99979816
1776408884187218934,0.034,,,,2026-04-17 06:54:44.187218 UTC,2026-04-17 06:54:44.187218,3.00748995
1776408884194910724,0.034,,,,2026-04-17 06:54:44.194910 UTC,2026-04-17 06:54:44.194910,3.01518174
1776408884202602514,0.024,,,,2026-04-17 06:54:44.202602 UTC,2026-04-17 06:54:44.202602,3.02287353
1776408884210294304,0.004,,,,2026-04-17 06:54:44.210294 UTC,2026-04-17 06:54:44.210294,3.03056532
1776408884217986094,-0.004,,,,2026-04-17 06:54:44.217986 UTC,2026-04-17 06:54:44.217986,3.03825711
1776408884225677884,0.002,,,,2026-04-17 06:54:44.225677 UTC,2026-04-17 06:54:44.225677,3.0459489
1776408884233369674,0.009,,,,2026-04-17 06:54:44.233369 UTC,2026-04-17 06:54:44.233369,3.05364069
1776408884241061464,0.017,,,,2026-04-17 06:54:44.241061 UTC,2026-04-17 06:54:44.241061,3.06133248
1776408884248753254,0.022,,,,2026-04-17 06:54:44.248753 UTC,2026-04-17 06:54:44.248753,3.06902427
1776408884256445044,0.029,,868.0,,2026-04-17 06:54:44.256445 UTC,2026-04-17 06:54:44.256445,3.07671606
1776408884264136834,0.036,,,,2026-04-17 06:54:44.264136 UTC,2026-04-17 06:54:44.264136,3.08440785
1776408884271828624,0.044,,,,2026-04-17 06:54:44.271828 UTC,2026-04-17 06:54:44.271828,3.09209964
1776408884279520414,0.046,,,,2026-04-17 06:54:44.279520 UTC,2026-04-17 06:54:44.279520,3.09979143
1776408884287212204,0.051,,,,2026-04-17 06:54:44.287212 UTC,2026-04-17 06:54:44.287212,3.10748322
1776408884294903994,0.068,,,,2026-04-17 06:54:44.294903 UTC,2026-04-17 06:54:44.294903,3.11517501
1776408884302595784,0.088,,,,2026-04-17 06:54:44.302595 UTC,2026-04-17 06:54:44.302595,3.1228668
1776408884310287574,0.095,,,,2026-04-17 06:54:44.310287 UTC,2026-04-17 06:54:44.310287,3.13055859
1776408884317979364,0.09,,,,2026-04-17 06:54:44.317979 UTC,2026-04-17 06:54:44.317979,3.13825038
1776408884325671154,0.09,,,,2026-04-17 06:54:44.325671 UTC,2026-04-17 06:54:44.325671,3.14594217
1776408884333362944,0.085,,,,2026-04-17 06:54:44.333362 UTC,2026-04-17 06:54:44.333362,3.15363396
1776408884341054734,0.076,,,,2026-04-17 06:54:44.341054 UTC,2026-04-17 06:54:44.341054,3.16132575
1776408884348746524,0.073,,,,2026-04-17 06:54:44.348746 UTC,2026-04-17 06:54:44.348746,3.16901754
1776408884356438314,0.061,,,,2026-04-17 06:54:44.356438 UTC,2026-04-17 06:54:44.356438,3.17670933
1776408884364130104,0.053,,,,2026-04-17 06:54:44.364130 UTC,2026-04-17 06:54:44.364130,3.18440112
1776408884371821894,0.061,,,,2026-04-17 06:54:44.371821 UTC,2026-04-17 06:54:44.371821,3.19209291
1776408884379513684,0.071,,,,2026-04-17 06:54:44.379513 UTC,2026-04-17 06:54:44.379513,3.1997847
1776408884387205474,0.073,,,,2026-04-17 06:54:44.387205 UTC,2026-04-17 06:54:44.387205,3.20747649
1776408884394897264,0.073,,,,2026-04-17 06:54:44.394897 UTC,2026-04-17 06:54:44.394897,3.21516828
1776408884402589054,0.137,,,,2026-04-17 06:54:44.402589 UTC,2026-04-17 06:54:44.402589,3.22286007
1776408884410280844,0.461,,,,2026-04-17 06:54:44.410280 UTC,2026-04-17 06:54:44.410280,3.23055186
1776408884417972634,1.128,,,,2026-04-17 06:54:44.417972 UTC,2026-04-17 06:54:44.417972,3.23824365
1776408884425664424,1.423,,,,2026-04-17 06:54:44.425664 UTC,2026-04-17 06:54:44.425664,3.24593544
1776408884433356214,0.306,,,,2026-04-17 06:54:44.433356 UTC,2026-04-17 06:54:44.433356,3.25362723
1776408884441048004,-1.381,,,,2026-04-17 06:54:44.441048 UTC,2026-04-17 06:54:44.441048,3.26131902
1776408884448739794,-1.636,,,,2026-04-17 06:54:44.448739 UTC,2026-04-17 06:54:44.448739,3.26901081
1776408884456431584,-0.804,,,,2026-04-17 06:54:44.456431 UTC,2026-04-17 06:54:44.456431,3.2767026
1776408884464123374,-0.377,,,,2026-04-17 06:54:44.464123 UTC,2026-04-17 06:54:44.464123,3.28439439
1776408884471815164,-0.152,,,,2026-04-17 06:54:44.471815 UTC,2026-04-17 06:54:44.471815,3.29208618
1776408884479506954,0.206,,,,2026-04-17 06:54:44.479506 UTC,2026-04-17 06:54:44.479506,3.29977797
1776408884487198744,0.282,,,,2026-04-17 06:54:44.487198 UTC,2026-04-17 06:54:44.487198,3.30746976
1776408884494890534,0.201,,,,2026-04-17 06:54:44.494890 UTC,2026-04-17 06:54:44.494890,3.31516155
1776408884502582324,0.264,,,,2026-04-17 06:54:44.502582 UTC,2026-04-17 06:54:44.502582,3.32285334
1776408884510274114,0.311,,,,2026-04-17 06:54:44.510274 UTC,2026-04-17 06:54:44.510274,3.33054513
1776408884517965904,0.279,,,,2026-04-17 06:54:44.517965 UTC,2026-04-17 06:54:44.517965,3.33823692
1776408884525657694,0.291,,,,2026-04-17 06:54:44.525657 UTC,2026-04-17 06:54:44.525657,3.34592871
1776408884533349484,0.318,,,,2026-04-17 06:54:44.533349 UTC,2026-04-17 06:54:44.533349,3.3536205
1776408884541041274,0.314,,,,2026-04-17 06:54:44.541041 UTC,2026-04-17 06:54:44.541041,3.36131229
1776408884548733076,0.311,75.0,,,2026-04-17 06:54:44.548733 UTC,2026-04-17 06:54:44.548733,3.369004092
1776408884556424866,0.323,,,,2026-04-17 06:54:44.556424 UTC,2026-04-17 06:54:44.556424,3.376695882
1776408884564116656,0.331,,,,2026-04-17 06:54:44.564116 UTC,2026-04-17 06:54:44.564116,3.384387672
1776408884571808446,0.341,,,,2026-04-17 06:54:44.571808 UTC,2026-04-17 06:54:44.571808,3.392079462
1776408884579500236,0.35,,,,2026-04-17 06:54:44.579500 UTC,2026-04-17 06:54:44.579500,3.399771252
1776408884587192026,0.363,,,,2026-04-17 06:54:44.587192 UTC,2026-04-17 06:54:44.587192,3.407463042
1776408884594883816,0.375,,,,2026-04-17 06:54:44.594883 UTC,2026-04-17 06:54:44.594883,3.415154832
1776408884602575606,0.385,,,,2026-04-17 06:54:44.602575 UTC,2026-04-17 06:54:44.602575,3.422846622
1776408884610267396,0.392,,,,2026-04-17 06:54:44.610267 UTC,2026-04-17 06:54:44.610267,3.430538412
1776408884617959186,0.404,,,,2026-04-17 06:54:44.617959 UTC,2026-04-17 06:54:44.617959,3.438230202
1776408884625650976,0.417,,,,2026-04-17 06:54:44.625650 UTC,2026-04-17 06:54:44.625650,3.445921992
1776408884633342766,0.429,,,,2026-04-17 06:54:44.633342 UTC,2026-04-17 06:54:44.633342,3.453613782
1776408884641034556,0.436,,,,2026-04-17 06:54:44.641034 UTC,2026-04-17 06:54:44.641034,3.461305572
1776408884648726346,0.419,,,,2026-04-17 06:54:44.648726 UTC,2026-04-17 06:54:44.648726,3.468997362
1776408884656418136,0.385,,,,2026-04-17 06:54:44.656418 UTC,2026-04-17 06:54:44.656418,3.476689152
1776408884664109926,0.358,,,,2026-04-17 06:54:44.664109 UTC,2026-04-17 06:54:44.664109,3.484380942
1776408884671801716,0.328,,,,2026-04-17 06:54:44.671801 UTC,2026-04-17 06:54:44.671801,3.492072732
1776408884679493506,0.287,,,,2026-04-17 06:54:44.679493 UTC,2026-04-17 06:54:44.679493,3.499764522
1776408884687185296,0.24,,,,2026-04-17 06:54:44.687185 UTC,2026-04-17 06:54:44.687185,3.507456312
1776408884694877086,0.188,,,,2026-04-17 06:54:44.694877 UTC,2026-04-17 06:54:44.694877,3.515148102
1776408884702568876,0.127,,,,2026-04-17 06:54:44.702568 UTC,2026-04-17 06:54:44.702568,3.522839892
1776408884710260666,0.066,,,,2026-04-17 06:54:44.710260 UTC,2026-04-17 06:54:44.710260,3.530531682
1776408884717952456,0.024,,,,2026-04-17 06:54:44.717952 UTC,2026-04-17 06:54:44.717952,3.538223472
1776408884725644246,0.0,,,,2026-04-17 06:54:44.725644 UTC,2026-04-17 06:54:44.725644,3.545915262
1776408884733336036,-0.017,,,,2026-04-17 06:54:44.733336 UTC,2026-04-17 06:54:44.733336,3.553607052
1776408884741027826,-0.026,,,,2026-04-17 06:54:44.741027 UTC,2026-04-17 06:54:44.741027,3.561298842
1776408884748719616,-0.026,,,,2026-04-17 06:54:44.748719 UTC,2026-04-17 06:54:44.748719,3.568990632
1776408884756411406,-0.031,,,,2026-04-17 06:54:44.756411 UTC,2026-04-17 06:54:44.756411,3.576682422
1776408884764103196,-0.034,,,,2026-04-17 06:54:44.764103 UTC,2026-04-17 06:54:44.764103,3.584374212
1776408884771794986,-0.026,,,,2026-04-17 06:54:44.771794 UTC,2026-04-17 06:54:44.771794,3.592066002
1776408884779486776,-0.017,,,,2026-04-17 06:54:44.779486 UTC,2026-04-17 06:54:44.779486,3.599757792
1776408884787178566,-0.007,,,,2026-04-17 06:54:44.787178 UTC,2026-04-17 06:54:44.787178,3.607449582
1776408884794870356,-0.002,,,,2026-04-17 06:54:44.794870 UTC,2026-04-17 06:54:44.794870,3.615141372
1776408884802562146,-0.002,,,,2026-04-17 06:54:44.802562 UTC,2026-04-17 06:54:44.802562,3.622833162
1776408884810253936,0.002,,,,2026-04-17 06:54:44.810253 UTC,2026-04-17 06:54:44.810253,3.630524952
1776408884817945726,0.019,,,,2026-04-17 06:54:44.817945 UTC,2026-04-17 06:54:44.817945,3.638216742
1776408884825637516,0.029,,,,2026-04-17 06:54:44.825637 UTC,2026-04-17 06:54:44.825637,3.645908532
1776408884833329306,0.029,,,,2026-04-17 06:54:44.833329 UTC,2026-04-17 06:54:44.833329,3.653600322
1776408884841021096,0.031,,,,2026-04-17 06:54:44.841021 UTC,2026-04-17 06:54:44.841021,3.661292112
1776408884848712886,0.036,,,,2026-04-17 06:54:44.848712 UTC,2026-04-17 06:54:44.848712,3.668983902
1776408884856404676,0.036,,,,2026-04-17 06:54:44.856404 UTC,2026-04-17 06:54:44.856404,3.676675692
1776408884864096466,0.036,,,,2026-04-17 06:54:44.864096 UTC,2026-04-17 06:54:44.864096,3.684367482
1776408884871788256,0.036,,,,2026-04-17 06:54:44.871788 UTC,2026-04-17 06:54:44.871788,3.692059272
1776408884879480046,0.029,,,,2026-04-17 06:54:44.879480 UTC,2026-04-17 06:54:44.879480,3.699751062
1776408884887171836,0.017,,,,2026-04-17 06:54:44.887171 UTC,2026-04-17 06:54:44.887171,3.707442852
1776408884894863626,0.022,,,,2026-04-17 06:54:44.894863 UTC,2026-04-17 06:54:44.894863,3.715134642
1776408884902555416,0.022,,,,2026-04-17 06:54:44.902555 UTC,2026-04-17 06:54:44.902555,3.722826432
1776408884910247206,0.022,,,,2026-04-17 06:54:44.910247 UTC,2026-04-17 06:54:44.910247,3.730518222
1776408884917938996,0.022,,,,2026-04-17 06:54:44.917938 UTC,2026-04-17 06:54:44.917938,3.738210012
1776408884925630786,0.017,,,,2026-04-17 06:54:44.925630 UTC,2026-04-17 06:54:44.925630,3.745901802
1776408884933322576,0.014,,,,2026-04-17 06:54:44.933322 UTC,2026-04-17 06:54:44.933322,3.753593592
1776408884941014366,0.012,,,,2026-04-17 06:54:44.941014 UTC,2026-04-17 06:54:44.941014,3.761285382
1776408884948706156,0.009,,,,2026-04-17 06:54:44.948706 UTC,2026-04-17 06:54:44.948706,3.768977172
1776408884956397946,0.012,,,,2026-04-17 06:54:44.956397 UTC,2026-04-17 06:54:44.956397,3.776668962
1776408884964089736,0.014,,,,2026-04-17 06:54:44.964089 UTC,2026-04-17 06:54:44.964089,3.784360752
1776408884971781526,0.017,,,,2026-04-17 06:54:44.971781 UTC,2026-04-17 06:54:44.971781,3.792052542
1776408884979473316,0.022,,,,2026-04-17 06:54:44.979473 UTC,2026-04-17 06:54:44.979473,3.799744332
1776408884987165106,0.026,,,,2026-04-17 06:54:44.987165 UTC,2026-04-17 06:54:44.987165,3.807436122
1776408884994856896,0.029,,,,2026-04-17 06:54:44.994856 UTC,2026-04-17 06:54:44.994856,3.815127912
1776408885002548686,0.034,,,,2026-04-17 06:54:45.002548 UTC,2026-04-17 06:54:45.002548,3.822819702
1776408885010240476,0.036,,,,2026-04-17 06:54:45.010240 UTC,2026-04-17 06:54:45.010240,3.830511492
1776408885017932266,0.036,,,,2026-04-17 06:54:45.017932 UTC,2026-04-17 06:54:45.017932,3.838203282
1776408885025624056,0.044,,,,2026-04-17 06:54:45.025624 UTC,2026-04-17 06:54:45.025624,3.845895072
1776408885033315846,0.058,,,,2026-04-17 06:54:45.033315 UTC,2026-04-17 06:54:45.033315,3.853586862
1776408885041007636,0.061,,784.0,,2026-04-17 06:54:45.041007 UTC,2026-04-17 06:54:45.041007,3.861278652
1776408885048699426,0.058,,,,2026-04-17 06:54:45.048699 UTC,2026-04-17 06:54:45.048699,3.868970442
1776408885056391216,0.066,,,,2026-04-17 06:54:45.056391 UTC,2026-04-17 06:54:45.056391,3.876662232
1776408885064083006,0.08,,,,2026-04-17 06:54:45.064083 UTC,2026-04-17 06:54:45.064083,3.884354022
1776408885071774796,0.09,,,,2026-04-17 06:54:45.071774 UTC,2026-04-17 06:54:45.071774,3.892045812
1776408885079466586,0.103,,,,2026-04-17 06:54:45.079466 UTC,2026-04-17 06:54:45.079466,3.899737602
1776408885087158376,0.11,,,,2026-04-17 06:54:45.087158 UTC,2026-04-17 06:54:45.087158,3.907429392
1776408885094850166,0.105,,,,2026-04-17 06:54:45.094850 UTC,2026-04-17 06:54:45.094850,3.915121182
1776408885102541956,0.1,,,,2026-04-17 06:54:45.102541 UTC,2026-04-17 06:54:45.102541,3.922812972
1776408885110233758,0.09,,,,2026-04-17 06:54:45.110233 UTC,2026-04-17 06:54:45.110233,3.930504774
1776408885117925548,0.08,,,,2026-04-17 06:54:45.117925 UTC,2026-04-17 06:54:45.117925,3.938196564
1776408885125617338,0.073,,,,2026-04-17 06:54:45.125617 UTC,2026-04-17 06:54:45.125617,3.945888354
1776408885133309128,0.068,,,,2026-04-17 06:54:45.133309 UTC,2026-04-17 06:54:45.133309,3.953580144
1776408885141000918,0.068,,,,2026-04-17 06:54:45.141000 UTC,2026-04-17 06:54:45.141000,3.961271934
1776408885148692708,0.071,,,,2026-04-17 06:54:45.148692 UTC,2026-04-17 06:54:45.148692,3.968963724
1776408885156384498,0.071,,,,2026-04-17 06:54:45.156384 UTC,2026-04-17 06:54:45.156384,3.976655514
1776408885164076288,0.076,,,,2026-04-17 06:54:45.164076 UTC,2026-04-17 06:54:45.164076,3.984347304
1776408885171768078,0.083,,,,2026-04-17 06:54:45.171768 UTC,2026-04-17 06:54:45.171768,3.992039094
1776408885179459868,0.176,,,,2026-04-17 06:54:45.179459 UTC,2026-04-17 06:54:45.179459,3.999730884
1776408885187151658,0.579,,,,2026-04-17 06:54:45.187151 UTC,2026-04-17 06:54:45.187151,4.007422674
1776408885194843448,1.246,,,,2026-04-17 06:54:45.194843 UTC,2026-04-17 06:54:45.194843,4.015114464
1776408885202535238,1.263,,,,2026-04-17 06:54:45.202535 UTC,2026-04-17 06:54:45.202535,4.022806254
1776408885210227028,-0.144,,,,2026-04-17 06:54:45.210227 UTC,2026-04-17 06:54:45.210227,4.030498044
1776408885217918818,-1.636,,,,2026-04-17 06:54:45.217918 UTC,2026-04-17 06:54:45.217918,4.038189834
1776408885225610608,-1.508,,,,2026-04-17 06:54:45.225610 UTC,2026-04-17 06:54:45.225610,4.045881624
1776408885233302398,-0.664,,,,2026-04-17 06:54:45.233302 UTC,2026-04-17 06:54:45.233302,4.053573414
1776408885240994188,-0.338,,,,2026-04-17 06:54:45.240994 UTC,2026-04-17 06:54:45.240994,4.061265204
1776408885248685978,-0.085,,,,2026-04-17 06:54:45.248685 UTC,2026-04-17 06:54:45.248685,4.068956994
1776408885256377768,0.22,,,,2026-04-17 06:54:45.256377 UTC,2026-04-17 06:54:45.256377,4.076648784
1776408885264069558,0.215,,,,2026-04-17 06:54:45.264069 UTC,2026-04-17 06:54:45.264069,4.084340574
1776408885271761348,0.166,,,,2026-04-17 06:54:45.271761 UTC,2026-04-17 06:54:45.271761,4.092032364
1776408885279453138,0.245,,,,2026-04-17 06:54:45.279453 UTC,2026-04-17 06:54:45.279453,4.099724154
1776408885287144928,0.26,,,,2026-04-17 06:54:45.287144 UTC,2026-04-17 06:54:45.287144,4.107415944
1776408885294836718,0.23,,,,2026-04-17 06:54:45.294836 UTC,2026-04-17 06:54:45.294836,4.115107734
1776408885302528508,0.257,,,,2026-04-17 06:54:45.302528 UTC,2026-04-17 06:54:45.302528,4.122799524
1776408885310220298,0.282,,,,2026-04-17 06:54:45.310220 UTC,2026-04-17 06:54:45.310220,4.130491314
1776408885317912088,0.279,,,,2026-04-17 06:54:45.317912 UTC,2026-04-17 06:54:45.317912,4.138183104
1776408885325603878,0.291,,,,2026-04-17 06:54:45.325603 UTC,2026-04-17 06:54:45.325603,4.145874894
1776408885333295668,0.301,,,,2026-04-17 06:54:45.333295 UTC,2026-04-17 06:54:45.333295,4.153566684
1776408885340987458,0.299,,,,2026-04-17 06:54:45.340987 UTC,2026-04-17 06:54:45.340987,4.161258474
1776408885348679248,0.306,,,,2026-04-17 06:54:45.348679 UTC,2026-04-17 06:54:45.348679,4.168950264
1776408885356371038,0.326,,,,2026-04-17 06:54:45.356371 UTC,2026-04-17 06:54:45.356371,4.176642054
1776408885364062828,0.338,,,,2026-04-17 06:54:45.364062 UTC,2026-04-17 06:54:45.364062,4.184333844
1776408885371754618,0.341,,,,2026-04-17 06:54:45.371754 UTC,2026-04-17 06:54:45.371754,4.192025634
1776408885379446408,0.35,,,,2026-04-17 06:54:45.379446 UTC,2026-04-17 06:54:45.379446,4.199717424
1776408885387138198,0.372,,,,2026-04-17 06:54:45.387138 UTC,2026-04-17 06:54:45.387138,4.207409214
1776408885394829988,0.395,,,,2026-04-17 06:54:45.394829 UTC,2026-04-17 06:54:45.394829,4.215101004
1776408885402521778,0.397,,,,2026-04-17 06:54:45.402521 UTC,2026-04-17 06:54:45.402521,4.222792794
1776408885410213568,0.402,,,,2026-04-17 06:54:45.410213 UTC,2026-04-17 06:54:45.410213,4.230484584
1776408885417905358,0.402,,,,2026-04-17 06:54:45.417905 UTC,2026-04-17 06:54:45.417905,4.238176374
1776408885425597148,0.382,,,,2026-04-17 06:54:45.425597 UTC,2026-04-17 06:54:45.425597,4.245868164
1776408885433288938,0.353,,,,2026-04-17 06:54:45.433288 UTC,2026-04-17 06:54:45.433288,4.253559954
1776408885440980728,0.326,,,,2026-04-17 06:54:45.440980 UTC,2026-04-17 06:54:45.440980,4.261251744
1776408885448672518,0.296,,,,2026-04-17 06:54:45.448672 UTC,2026-04-17 06:54:45.448672,4.268943534
1776408885456364308,0.257,,,,2026-04-17 06:54:45.456364 UTC,2026-04-17 06:54:45.456364,4.276635324
1776408885464056098,0.22,,,,2026-04-17 06:54:45.464056 UTC,2026-04-17 06:54:45.464056,4.284327114
1776408885471747888,0.179,,,,2026-04-17 06:54:45.471747 UTC,2026-04-17 06:54:45.471747,4.292018904
1776408885479439678,0.134,,,,2026-04-17 06:54:45.479439 UTC,2026-04-17 06:54:45.479439,4.299710694
1776408885487131468,0.098,,,,2026-04-17 06:54:45.487131 UTC,2026-04-17 06:54:45.487131,4.307402484
1776408885494823258,0.068,,,,2026-04-17 06:54:45.494823 UTC,2026-04-17 06:54:45.494823,4.315094274
1776408885502515048,0.041,,,,2026-04-17 06:54:45.502515 UTC,2026-04-17 06:54:45.502515,4.322786064
1776408885510206838,0.026,,,,2026-04-17 06:54:45.510206 UTC,2026-04-17 06:54:45.510206,4.330477854
1776408885517898628,0.024,,,,2026-04-17 06:54:45.517898 UTC,2026-04-17 06:54:45.517898,4.338169644
1776408885525590418,0.014,,,,2026-04-17 06:54:45.525590 UTC,2026-04-17 06:54:45.525590,4.345861434
1776408885533282208,0.004,,,,2026-04-17 06:54:45.533282 UTC,2026-04-17 06:54:45.533282,4.353553224
1776408885540973998,0.004,,,,2026-04-17 06:54:45.540973 UTC,2026-04-17 06:54:45.540973,4.361245014
1776408885548665788,0.009,,,,2026-04-17 06:54:45.548665 UTC,2026-04-17 06:54:45.548665,4.368936804
1776408885556357578,0.017,,,,2026-04-17 06:54:45.556357 UTC,2026-04-17 06:54:45.556357,4.376628594
1776408885564049368,0.029,,,,2026-04-17 06:54:45.564049 UTC,2026-04-17 06:54:45.564049,4.384320384
1776408885571741158,0.034,,,,2026-04-17 06:54:45.571741 UTC,2026-04-17 06:54:45.571741,4.392012174
1776408885579432948,0.031,,,,2026-04-17 06:54:45.579432 UTC,2026-04-17 06:54:45.579432,4.399703964
1776408885587124738,0.031,,,,2026-04-17 06:54:45.587124 UTC,2026-04-17 06:54:45.587124,4.407395754
1776408885594816528,0.039,,,,2026-04-17 06:54:45.594816 UTC,2026-04-17 06:54:45.594816,4.415087544
1776408885602508318,0.051,,,,2026-04-17 06:54:45.602508 UTC,2026-04-17 06:54:45.602508,4.422779334
1776408885610200108,0.058,,,,2026-04-17 06:54:45.610200 UTC,2026-04-17 06:54:45.610200,4.430471124
1776408885617891898,0.056,,,,2026-04-17 06:54:45.617891 UTC,2026-04-17 06:54:45.617891,4.438162914
1776408885625583688,0.051,,,,2026-04-17 06:54:45.625583 UTC,2026-04-17 06:54:45.625583,4.445854704
1776408885633275478,0.051,,,,2026-04-17 06:54:45.633275 UTC,2026-04-17 06:54:45.633275,4.453546494
1776408885640967268,0.053,,,,2026-04-17 06:54:45.640967 UTC,2026-04-17 06:54:45.640967,4.461238284
1776408885648659058,0.053,,,,2026-04-17 06:54:45.648659 UTC,2026-04-17 06:54:45.648659,4.468930074
1776408885656350848,0.046,,,,2026-04-17 06:54:45.656350 UTC,2026-04-17 06:54:45.656350,4.476621864
1776408885664042638,0.034,,,,2026-04-17 06:54:45.664042 UTC,2026-04-17 06:54:45.664042,4.484313654
1776408885671734440,0.026,75.0,,,2026-04-17 06:54:45.671734 UTC,2026-04-17 06:54:45.671734,4.492005456
1776408885679426230,0.022,,,,2026-04-17 06:54:45.679426 UTC,2026-04-17 06:54:45.679426,4.499697246
1776408885687118020,0.014,,,,2026-04-17 06:54:45.687118 UTC,2026-04-17 06:54:45.687118,4.507389036
1776408885694809810,0.012,,,,2026-04-17 06:54:45.694809 UTC,2026-04-17 06:54:45.694809,4.515080826
1776408885702501600,0.017,,,,2026-04-17 06:54:45.702501 UTC,2026-04-17 06:54:45.702501,4.522772616
1776408885710193390,0.019,,,,2026-04-17 06:54:45.710193 UTC,2026-04-17 06:54:45.710193,4.530464406
1776408885717885180,0.009,,,,2026-04-17 06:54:45.717885 UTC,2026-04-17 06:54:45.717885,4.538156196
1776408885725576970,0.002,,,,2026-04-17 06:54:45.725576 UTC,2026-04-17 06:54:45.725576,4.545847986
1776408885733268760,0.002,,,,2026-04-17 06:54:45.733268 UTC,2026-04-17 06:54:45.733268,4.553539776
1776408885740960550,0.007,,,,2026-04-17 06:54:45.740960 UTC,2026-04-17 06:54:45.740960,4.561231566
1776408885748652340,0.012,,,,2026-04-17 06:54:45.748652 UTC,2026-04-17 06:54:45.748652,4.568923356
1776408885756344130,0.012,,,,2026-04-17 06:54:45.756344 UTC,2026-04-17 06:54:45.756344,4.576615146
1776408885764035920,0.012,,,,2026-04-17 06:54:45.764035 UTC,2026-04-17 06:54:45.764035,4.584306936
1776408885771727710,0.007,,,,2026-04-17 06:54:45.771727 UTC,2026-04-17 06:54:45.771727,4.591998726
1776408885779419500,0.002,,,,2026-04-17 06:54:45.779419 UTC,2026-04-17 06:54:45.779419,4.599690516
1776408885787111290,0.007,,,,2026-04-17 06:54:45.787111 UTC,2026-04-17 06:54:45.787111,4.607382306
1776408885794803080,0.019,,,,2026-04-17 06:54:45.794803 UTC,2026-04-17 06:54:45.794803,4.615074096
1776408885802494870,0.026,,,,2026-04-17 06:54:45.802494 UTC,2026-04-17 06:54:45.802494,4.622765886
1776408885810186660,0.029,,,,2026-04-17 06:54:45.810186 UTC,2026-04-17 06:54:45.810186,4.630457676
1776408885817878450,0.034,,,,2026-04-17 06:54:45.817878 UTC,2026-04-17 06:54:45.817878,4.638149466
1776408885825570240,0.036,,,,2026-04-17 06:54:45.825570 UTC,2026-04-17 06:54:45.825570,4.645841256
1776408885833262030,0.044,,,,2026-04-17 06:54:45.833262 UTC,2026-04-17 06:54:45.833262,4.653533046
1776408885840953820,0.058,,,,2026-04-17 06:54:45.840953 UTC,2026-04-17 06:54:45.840953,4.661224836
1776408885848645610,0.076,,,,2026-04-17 06:54:45.848645 UTC,2026-04-17 06:54:45.848645,4.668916626
1776408885856337400,0.085,,,,2026-04-17 06:54:45.856337 UTC,2026-04-17 06:54:45.856337,4.676608416
1776408885864029190,0.083,,,,2026-04-17 06:54:45.864029 UTC,2026-04-17 06:54:45.864029,4.684300206
1776408885871720980,0.063,,830.0,,2026-04-17 06:54:45.871720 UTC,2026-04-17 06:54:45.871720,4.691991996
1776408885879412770,0.046,,,,2026-04-17 06:54:45.879412 UTC,2026-04-17 06:54:45.879412,4.699683786
1776408885887104560,0.046,,,,2026-04-17 06:54:45.887104 UTC,2026-04-17 06:54:45.887104,4.707375576
1776408885894796350,0.034,,,,2026-04-17 06:54:45.894796 UTC,2026-04-17 06:54:45.894796,4.715067366
1776408885902488140,0.022,,,,2026-04-17 06:54:45.902488 UTC,2026-04-17 06:54:45.902488,4.722759156
1776408885910179930,0.031,,,,2026-04-17 06:54:45.910179 UTC,2026-04-17 06:54:45.910179,4.730450946
1776408885917871720,0.041,,,,2026-04-17 06:54:45.917871 UTC,2026-04-17 06:54:45.917871,4.738142736
1776408885925563510,0.039,,,,2026-04-17 06:54:45.925563 UTC,2026-04-17 06:54:45.925563,4.745834526
1776408885933255300,0.034,,,,2026-04-17 06:54:45.933255 UTC,2026-04-17 06:54:45.933255,4.753526316
1776408885940947090,0.053,,,,2026-04-17 06:54:45.940947 UTC,2026-04-17 06:54:45.940947,4.761218106
1776408885948638880,0.213,,,,2026-04-17 06:54:45.948638 UTC,2026-04-17 06:54:45.948638,4.768909896
1776408885956330670,0.714,,,,2026-04-17 06:54:45.956330 UTC,2026-04-17 06:54:45.956330,4.776601686
1776408885964022460,1.322,,,,2026-04-17 06:54:45.964022 UTC,2026-04-17 06:54:45.964022,4.784293476
1776408885971714250,0.983,,,,2026-04-17 06:54:45.971714 UTC,2026-04-17 06:54:45.971714,4.791985266
1776408885979406040,-0.625,,,,2026-04-17 06:54:45.979406 UTC,2026-04-17 06:54:45.979406,4.799677056
1776408885987097830,-1.715,,,,2026-04-17 06:54:45.987097 UTC,2026-04-17 06:54:45.987097,4.807368846
1776408885994789620,-1.221,,,,2026-04-17 06:54:45.994789 UTC,2026-04-17 06:54:45.994789,4.815060636
1776408886002481410,-0.532,,,,2026-04-17 06:54:46.002481 UTC,2026-04-17 06:54:46.002481,4.822752426
1776408886010173200,-0.326,,,,2026-04-17 06:54:46.010173 UTC,2026-04-17 06:54:46.010173,4.830444216
1776408886017864990,-0.019,,,,2026-04-17 06:54:46.017864 UTC,2026-04-17 06:54:46.017864,4.838136006
1776408886025556780,0.235,,,,2026-04-17 06:54:46.025556 UTC,2026-04-17 06:54:46.025556,4.845827796
1776408886033248570,0.191,,,,2026-04-17 06:54:46.033248 UTC,2026-04-17 06:54:46.033248,4.853519586
1776408886040940360,0.176,,,,2026-04-17 06:54:46.040940 UTC,2026-04-17 06:54:46.040940,4.861211376
1776408886048632150,0.26,,,,2026-04-17 06:54:46.048632 UTC,2026-04-17 06:54:46.048632,4.868903166
1776408886056323940,0.26,,,,2026-04-17 06:54:46.056323 UTC,2026-04-17 06:54:46.056323,4.876594956
1776408886064015730,0.235,,,,2026-04-17 06:54:46.064015 UTC,2026-04-17 06:54:46.064015,4.884286746
1776408886071707520,0.255,,,,2026-04-17 06:54:46.071707 UTC,2026-04-17 06:54:46.071707,4.891978536
1776408886079399310,0.262,,,,2026-04-17 06:54:46.079399 UTC,2026-04-17 06:54:46.079399,4.899670326
1776408886087091100,0.26,,,,2026-04-17 06:54:46.087091 UTC,2026-04-17 06:54:46.087091,4.907362116
1776408886094782890,0.274,,,,2026-04-17 06:54:46.094782 UTC,2026-04-17 06:54:46.094782,4.915053906
1776408886102474680,0.287,,,,2026-04-17 06:54:46.102474 UTC,2026-04-17 06:54:46.102474,4.922745696
1776408886110166470,0.291,,,,2026-04-17 06:54:46.110166 UTC,2026-04-17 06:54:46.110166,4.930437486
1776408886117858260,0.291,,,,2026-04-17 06:54:46.117858 UTC,2026-04-17 06:54:46.117858,4.938129276
1776408886125550050,0.291,,,,2026-04-17 06:54:46.125550 UTC,2026-04-17 06:54:46.125550,4.945821066
1776408886133241840,0.304,,,,2026-04-17 06:54:46.133241 UTC,2026-04-17 06:54:46.133241,4.953512856
1776408886140933630,0.321,,,,2026-04-17 06:54:46.140933 UTC,2026-04-17 06:54:46.140933,4.961204646
1776408886148625420,0.336,,,,2026-04-17 06:54:46.148625 UTC,2026-04-17 06:54:46.148625,4.968896436
1776408886156317210,0.35,,,,2026-04-17 06:54:46.156317 UTC,2026-04-17 06:54:46.156317,4.976588226
1776408886164009000,0.358,,,,2026-04-17 06:54:46.164009 UTC,2026-04-17 06:54:46.164009,4.984280016
1776408886171700790,0.36,,,,2026-04-17 06:54:46.171700 UTC,2026-04-17 06:54:46.171700,4.991971806
1776408886179392580,0.36,,,,2026-04-17 06:54:46.179392 UTC,2026-04-17 06:54:46.179392,4.999663596
1776408886187084370,0.358,,,,2026-04-17 06:54:46.187084 UTC,2026-04-17 06:54:46.187084,5.007355386
1776408886194776160,0.345,,,,2026-04-17 06:54:46.194776 UTC,2026-04-17 06:54:46.194776,5.015047176
1776408886202467950,0.321,,,,2026-04-17 06:54:46.202467 UTC,2026-04-17 06:54:46.202467,5.022738966
1776408886210159740,0.287,,,,2026-04-17 06:54:46.210159 UTC,2026-04-17 06:54:46.210159,5.030430756
1776408886217851530,0.247,,,,2026-04-17 06:54:46.217851 UTC,2026-04-17 06:54:46.217851,5.038122546
1776408886225543320,0.206,,,,2026-04-17 06:54:46.225543 UTC,2026-04-17 06:54:46.225543,5.045814336
1776408886233235122,0.154,,,,2026-04-17 06:54:46.233235 UTC,2026-04-17 06:54:46.233235,5.053506138
1776408886240926912,0.115,,,,2026-04-17 06:54:46.240926 UTC,2026-04-17 06:54:46.240926,5.061197928
1776408886248618702,0.085,,,,2026-04-17 06:54:46.248618 UTC,2026-04-17 06:54:46.248618,5.068889718
1776408886256310492,0.049,,,,2026-04-17 06:54:46.256310 UTC,2026-04-17 06:54:46.256310,5.076581508
1776408886264002282,0.009,,,,2026-04-17 06:54:46.264002 UTC,2026-04-17 06:54:46.264002,5.084273298
1776408886271694072,-0.009,,,,2026-04-17 06:54:46.271694 UTC,2026-04-17 06:54:46.271694,5.091965088
1776408886279385862,-0.017,,,,2026-04-17 06:54:46.279385 UTC,2026-04-17 06:54:46.279385,5.099656878
1776408886287077652,-0.024,,,,2026-04-17 06:54:46.287077 UTC,2026-04-17 06:54:46.287077,5.107348668
1776408886294769442,-0.029,,,,2026-04-17 06:54:46.294769 UTC,2026-04-17 06:54:46.294769,5.115040458
1776408886302461232,-0.026,,,,2026-04-17 06:54:46.302461 UTC,2026-04-17 06:54:46.302461,5.122732248
1776408886310153022,-0.031,,,,2026-04-17 06:54:46.310153 UTC,2026-04-17 06:54:46.310153,5.130424038
1776408886317844812,-0.034,,,,2026-04-17 06:54:46.317844 UTC,2026-04-17 06:54:46.317844,5.138115828
1776408886325536602,-0.019,,,,2026-04-17 06:54:46.325536 UTC,2026-04-17 06:54:46.325536,5.145807618
1776408886333228392,-0.002,,,,2026-04-17 06:54:46.333228 UTC,2026-04-17 06:54:46.333228,5.153499408
1776408886340920182,0.004,,,,2026-04-17 06:54:46.340920 UTC,2026-04-17 06:54:46.340920,5.161191198
1776408886348611972,0.009,,,,2026-04-17 06:54:46.348611 UTC,2026-04-17 06:54:46.348611,5.168882988
1776408886356303762,0.014,,,,2026-04-17 06:54:46.356303 UTC,2026-04-17 06:54:46.356303,5.176574778
1776408886363995552,0.022,,,,2026-04-17 06:54:46.363995 UTC,2026-04-17 06:54:46.363995,5.184266568
1776408886371687342,0.029,,,,2026-04-17 06:54:46.371687 UTC,2026-04-17 06:54:46.371687,5.191958358
1776408886379379132,0.039,,,,2026-04-17 06:54:46.379379 UTC,2026-04-17 06:54:46.379379,5.199650148
1776408886387070922,0.044,,,,2026-04-17 06:54:46.387070 UTC,2026-04-17 06:54:46.387070,5.207341938
1776408886394762712,0.039,,,,2026-04-17 06:54:46.394762 UTC,2026-04-17 06:54:46.394762,5.215033728
1776408886402454502,0.036,,,,2026-04-17 06:54:46.402454 UTC,2026-04-17 06:54:46.402454,5.222725518
1776408886410146292,0.039,,,,2026-04-17 06:54:46.410146 UTC,2026-04-17 06:54:46.410146,5.230417308
1776408886417838082,0.034,,,,2026-04-17 06:54:46.417838 UTC,2026-04-17 06:54:46.417838,5.238109098
1776408886425529872,0.024,,,,2026-04-17 06:54:46.425529 UTC,2026-04-17 06:54:46.425529,5.245800888
1776408886433221662,0.026,,,,2026-04-17 06:54:46.433221 UTC,2026-04-17 06:54:46.433221,5.253492678
1776408886440913452,0.029,,,,2026-04-17 06:54:46.440913 UTC,2026-04-17 06:54:46.440913,5.261184468
1776408886448605242,0.024,,,,2026-04-17 06:54:46.448605 UTC,2026-04-17 06:54:46.448605,5.268876258
1776408886456297032,0.017,,,,2026-04-17 06:54:46.456297 UTC,2026-04-17 06:54:46.456297,5.276568048
1776408886463988822,0.017,,,,2026-04-17 06:54:46.463988 UTC,2026-04-17 06:54:46.463988,5.284259838
1776408886471680612,0.024,,,,2026-04-17 06:54:46.471680 UTC,2026-04-17 06:54:46.471680,5.291951628
1776408886479372402,0.026,,,,2026-04-17 06:54:46.479372 UTC,2026-04-17 06:54:46.479372,5.299643418
1776408886487064192,0.014,,,,2026-04-17 06:54:46.487064 UTC,2026-04-17 06:54:46.487064,5.307335208
1776408886494755982,0.012,,,,2026-04-17 06:54:46.494755 UTC,2026-04-17 06:54:46.494755,5.315026998
1776408886502447772,0.019,,,,2026-04-17 06:54:46.502447 UTC,2026-04-17 06:54:46.502447,5.322718788
1776408886510139562,0.019,,,,2026-04-17 06:54:46.510139 UTC,2026-04-17 06:54:46.510139,5.330410578
1776408886517831352,0.019,,,,2026-04-17 06:54:46.517831 UTC,2026-04-17 06:54:46.517831,5.338102368
1776408886525523142,0.026,,,,2026-04-17 06:54:46.525523 UTC,2026-04-17 06:54:46.525523,5.345794158
1776408886533214932,0.031,,,,2026-04-17 06:54:46.533214 UTC,2026-04-17 06:54:46.533214,5.353485948
1776408886540906722,0.029,,,,2026-04-17 06:54:46.540906 UTC,2026-04-17 06:54:46.540906,5.361177738
1776408886548598512,0.031,,,,2026-04-17 06:54:46.548598 UTC,2026-04-17 06:54:46.548598,5.368869528
1776408886556290302,0.039,,,,2026-04-17 06:54:46.556290 UTC,2026-04-17 06:54:46.556290,5.376561318
1776408886563982092,0.053,,,,2026-04-17 06:54:46.563982 UTC,2026-04-17 06:54:46.563982,5.384253108
1776408886571673882,0.068,,,,2026-04-17 06:54:46.571673 UTC,2026-04-17 06:54:46.571673,5.391944898
1776408886579365672,0.083,,,,2026-04-17 06:54:46.579365 UTC,2026-04-17 06:54:46.579365,5.399636688
1776408886587057462,0.083,,,,2026-04-17 06:54:46.587057 UTC,2026-04-17 06:54:46.587057,5.407328478
1776408886594749252,0.071,,,,2026-04-17 06:54:46.594749 UTC,2026-04-17 06:54:46.594749,5.415020268
1776408886602441042,0.053,,,,2026-04-17 06:54:46.602441 UTC,2026-04-17 06:54:46.602441,5.422712058
1776408886610132832,0.041,,,,2026-04-17 06:54:46.610132 UTC,2026-04-17 06:54:46.610132,5.430403848
1776408886617824622,0.031,,,,2026-04-17 06:54:46.617824 UTC,2026-04-17 06:54:46.617824,5.438095638
1776408886625516412,0.031,,,,2026-04-17 06:54:46.625516 UTC,2026-04-17 06:54:46.625516,5.445787428
1776408886633208202,0.036,,,,2026-04-17 06:54:46.633208 UTC,2026-04-17 06:54:46.633208,5.453479218
1776408886640899992,0.041,,,,2026-04-17 06:54:46.640899 UTC,2026-04-17 06:54:46.640899,5.461171008
1776408886648591782,0.044,,,,2026-04-17 06:54:46.648591 UTC,2026-04-17 06:54:46.648591,5.468862798
1776408886656283572,0.041,,,,2026-04-17 06:54:46.656283 UTC,2026-04-17 06:54:46.656283,5.476554588
1776408886663975362,0.058,,,,2026-04-17 06:54:46.663975 UTC,2026-04-17 06:54:46.663975,5.484246378
1776408886671667152,0.235,,,,2026-04-17 06:54:46.671667 UTC,2026-04-17 06:54:46.671667,5.491938168
1776408886679358942,0.78,,809.0,,2026-04-17 06:54:46.679358 UTC,2026-04-17 06:54:46.679358,5.499629958
1776408886687050732,1.401,,,,2026-04-17 06:54:46.687050 UTC,2026-04-17 06:54:46.687050,5.507321748
1776408886694742522,0.942,,,,2026-04-17 06:54:46.694742 UTC,2026-04-17 06:54:46.694742,5.515013538
1776408886702434312,-0.787,,,,2026-04-17 06:54:46.702434 UTC,2026-04-17 06:54:46.702434,5.522705328
1776408886710126102,-1.781,,,,2026-04-17 06:54:46.710126 UTC,2026-04-17 06:54:46.710126,5.530397118
1776408886717817892,-1.182,,,,2026-04-17 06:54:46.717817 UTC,2026-04-17 06:54:46.717817,5.538088908
1776408886725509682,-0.539,,,,2026-04-17 06:54:46.725509 UTC,2026-04-17 06:54:46.725509,5.545780698
1776408886733201472,-0.35,,,,2026-04-17 06:54:46.733201 UTC,2026-04-17 06:54:46.733201,5.553472488
1776408886740893262,-0.002,,,,2026-04-17 06:54:46.740893 UTC,2026-04-17 06:54:46.740893,5.561164278
1776408886748585052,0.255,,,,2026-04-17 06:54:46.748585 UTC,2026-04-17 06:54:46.748585,5.568856068
1776408886756276842,0.193,,,,2026-04-17 06:54:46.756276 UTC,2026-04-17 06:54:46.756276,5.576547858
1776408886763968632,0.184,,,,2026-04-17 06:54:46.763968 UTC,2026-04-17 06:54:46.763968,5.584239648
1776408886771660422,0.274,,,,2026-04-17 06:54:46.771660 UTC,2026-04-17 06:54:46.771660,5.591931438
1776408886779352212,0.279,,,,2026-04-17 06:54:46.779352 UTC,2026-04-17 06:54:46.779352,5.599623228
1776408886787044002,0.262,,,,2026-04-17 06:54:46.787044 UTC,2026-04-17 06:54:46.787044,5.607315018
1776408886794735804,0.284,75.0,,,2026-04-17 06:54:46.794735 UTC,2026-04-17 06:54:46.794735,5.61500682
1776408886802427594,0.296,,,,2026-04-17 06:54:46.802427 UTC,2026-04-17 06:54:46.802427,5.62269861
1776408886810119384,0.296,,,,2026-04-17 06:54:46.810119 UTC,2026-04-17 06:54:46.810119,5.6303904
1776408886817811174,0.304,,,,2026-04-17 06:54:46.817811 UTC,2026-04-17 06:54:46.817811,5.63808219
1776408886825502964,0.314,,,,2026-04-17 06:54:46.825502 UTC,2026-04-17 06:54:46.825502,5.64577398
1776408886833194754,0.321,,,,2026-04-17 06:54:46.833194 UTC,2026-04-17 06:54:46.833194,5.65346577
1776408886840886544,0.328,,,,2026-04-17 06:54:46.840886 UTC,2026-04-17 06:54:46.840886,5.66115756
1776408886848578334,0.331,,,,2026-04-17 06:54:46.848578 UTC,2026-04-17 06:54:46.848578,5.66884935
1776408886856270124,0.336,,,,2026-04-17 06:54:46.856270 UTC,2026-04-17 06:54:46.856270,5.67654114
1776408886863961914,0.353,,,,2026-04-17 06:54:46.863961 UTC,2026-04-17 06:54:46.863961,5.68423293
1776408886871653704,0.37,,,,2026-04-17 06:54:46.871653 UTC,2026-04-17 06:54:46.871653,5.69192472
1776408886879345494,0.382,,,,2026-04-17 06:54:46.879345 UTC,2026-04-17 06:54:46.879345,5.69961651
1776408886887037284,0.397,,,,2026-04-17 06:54:46.887037 UTC,2026-04-17 06:54:46.887037,5.7073083
1776408886894729074,0.407,,,,2026-04-17 06:54:46.894729 UTC,2026-04-17 06:54:46.894729,5.71500009
1776408886902420864,0.404,,,,2026-04-17 06:54:46.902420 UTC,2026-04-17 06:54:46.902420,5.72269188
1776408886910112654,0.392,,,,2026-04-17 06:54:46.910112 UTC,2026-04-17 06:54:46.910112,5.73038367
1776408886917804444,0.372,,,,2026-04-17 06:54:46.917804 UTC,2026-04-17 06:54:46.917804,5.73807546
1776408886925496234,0.348,,,,2026-04-17 06:54:46.925496 UTC,2026-04-17 06:54:46.925496,5.74576725
1776408886933188024,0.318,,,,2026-04-17 06:54:46.933188 UTC,2026-04-17 06:54:46.933188,5.75345904
1776408886940879814,0.282,,,,2026-04-17 06:54:46.940879 UTC,2026-04-17 06:54:46.940879,5.76115083
1776408886948571604,0.242,,,,2026-04-17 06:54:46.948571 UTC,2026-04-17 06:54:46.948571,5.76884262
1776408886956263394,0.193,,,,2026-04-17 06:54:46.956263 UTC,2026-04-17 06:54:46.956263,5.77653441
1776408886963955184,0.142,,,,2026-04-17 06:54:46.963955 UTC,2026-04-17 06:54:46.963955,5.7842262
1776408886971646974,0.103,,,,2026-04-17 06:54:46.971646 UTC,2026-04-17 06:54:46.971646,5.79191799
1776408886979338764,0.068,,,,2026-04-17 06:54:46.979338 UTC,2026-04-17 06:54:46.979338,5.79960978
1776408886987030554,0.034,,,,2026-04-17 06:54:46.987030 UTC,2026-04-17 06:54:46.987030,5.80730157
1776408886994722344,0.012,,,,2026-04-17 06:54:46.994722 UTC,2026-04-17 06:54:46.994722,5.81499336
1776408887002414134,-0.004,,,,2026-04-17 06:54:47.002414 UTC,2026-04-17 06:54:47.002414,5.82268515
1776408887010105924,-0.007,,,,2026-04-17 06:54:47.010105 UTC,2026-04-17 06:54:47.010105,5.83037694
1776408887017797714,0.002,,,,2026-04-17 06:54:47.017797 UTC,2026-04-17 06:54:47.017797,5.83806873
1776408887025489504,0.002,,,,2026-04-17 06:54:47.025489 UTC,2026-04-17 06:54:47.025489,5.84576052
1776408887033181294,0.0,,,,2026-04-17 06:54:47.033181 UTC,2026-04-17 06:54:47.033181,5.85345231
1776408887040873084,0.007,,,,2026-04-17 06:54:47.040873 UTC,2026-04-17 06:54:47.040873,5.8611441
1776408887048564874,0.017,,,,2026-04-17 06:54:47.048564 UTC,2026-04-17 06:54:47.048564,5.86883589
1776408887056256664,0.019,,,,2026-04-17 06:54:47.056256 UTC,2026-04-17 06:54:47.056256,5.87652768
1776408887063948454,0.024,,,,2026-04-17 06:54:47.063948 UTC,2026-04-17 06:54:47.063948,5.88421947
1776408887071640244,0.044,,,,2026-04-17 06:54:47.071640 UTC,2026-04-17 06:54:47.071640,5.89191126
1776408887079332034,0.063,,,,2026-04-17 06:54:47.079332 UTC,2026-04-17 06:54:47.079332,5.89960305
1776408887087023824,0.051,,,,2026-04-17 06:54:47.087023 UTC,2026-04-17 06:54:47.087023,5.90729484
1776408887094715614,0.046,,,,2026-04-17 06:54:47.094715 UTC,2026-04-17 06:54:47.094715,5.91498663
1776408887102407404,0.071,,,,2026-04-17 06:54:47.102407 UTC,2026-04-17 06:54:47.102407,5.92267842
1776408887110099194,0.08,,,,2026-04-17 06:54:47.110099 UTC,2026-04-17 06:54:47.110099,5.93037021
1776408887117790984,0.071,,,,2026-04-17 06:54:47.117790 UTC,2026-04-17 06:54:47.117790,5.938062
1776408887125482774,0.068,,,,2026-04-17 06:54:47.125482 UTC,2026-04-17 06:54:47.125482,5.94575379
1776408887133174564,0.068,,,,2026-04-17 06:54:47.133174 UTC,2026-04-17 06:54:47.133174,5.95344558
1776408887140866354,0.068,,,,2026-04-17 06:54:47.140866 UTC,2026-04-17 06:54:47.140866,5.96113737
1776408887148558144,0.063,,,,2026-04-17 06:54:47.148558 UTC,2026-04-17 06:54:47.148558,5.96882916
1776408887156249934,0.061,,,,2026-04-17 06:54:47.156249 UTC,2026-04-17 06:54:47.156249,5.97652095
1776408887163941724,0.056,,,,2026-04-17 06:54:47.163941 UTC,2026-04-17 06:54:47.163941,5.98421274
1776408887171633514,0.051,,,,2026-04-17 06:54:47.171633 UTC,2026-04-17 06:54:47.171633,5.99190453
1776408887179325304,0.051,,,,2026-04-17 06:54:47.179325 UTC,2026-04-17 06:54:47.179325,5.99959632
1776408887187017094,0.056,,,,2026-04-17 06:54:47.187017 UTC,2026-04-17 06:54:47.187017,6.00728811
1776408887194708884,0.053,,,,2026-04-17 06:54:47.194708 UTC,2026-04-17 06:54:47.194708,6.0149799
1776408887202400674,0.049,,,,2026-04-17 06:54:47.202400 UTC,2026-04-17 06:54:47.202400,6.02267169
1776408887210092464,0.049,,,,2026-04-17 06:54:47.210092 UTC,2026-04-17 06:54:47.210092,6.03036348
1776408887217784254,0.056,,,,2026-04-17 06:54:47.217784 UTC,2026-04-17 06:54:47.217784,6.03805527
1776408887225476044,0.056,,,,2026-04-17 06:54:47.225476 UTC,2026-04-17 06:54:47.225476,6.04574706
1776408887233167834,0.041,,,,2026-04-17 06:54:47.233167 UTC,2026-04-17 06:54:47.233167,6.05343885
1776408887240859624,0.022,,,,2026-04-17 06:54:47.240859 UTC,2026-04-17 06:54:47.240859,6.06113064
1776408887248551414,0.017,,,,2026-04-17 06:54:47.248551 UTC,2026-04-17 06:54:47.248551,6.06882243
1776408887256243204,0.031,,,,2026-04-17 06:54:47.256243 UTC,2026-04-17 06:54:47.256243,6.07651422
1776408887263934994,0.041,,,,2026-04-17 06:54:47.263934 UTC,2026-04-17 06:54:47.263934,6.08420601
1776408887271626784,0.044,,,,2026-04-17 06:54:47.271626 UTC,2026-04-17 06:54:47.271626,6.0918978
1776408887279318574,0.053,,,,2026-04-17 06:54:47.279318 UTC,2026-04-17 06:54:47.279318,6.09958959
1776408887287010364,0.051,,,,2026-04-17 06:54:47.287010 UTC,2026-04-17 06:54:47.287010,6.10728138
1776408887294702154,0.039,,,,2026-04-17 06:54:47.294702 UTC,2026-04-17 06:54:47.294702,6.11497317
1776408887302393944,0.041,,,,2026-04-17 06:54:47.302393 UTC,2026-04-17 06:54:47.302393,6.12266496
1776408887310085734,0.056,,,,2026-04-17 06:54:47.310085 UTC,2026-04-17 06:54:47.310085,6.13035675
1776408887317777524,0.08,,,,2026-04-17 06:54:47.317777 UTC,2026-04-17 06:54:47.317777,6.13804854
1776408887325469314,0.088,,,,2026-04-17 06:54:47.325469 UTC,2026-04-17 06:54:47.325469,6.14574033
1776408887333161104,0.066,,,,2026-04-17 06:54:47.333161 UTC,2026-04-17 06:54:47.333161,6.15343212
1776408887340852894,0.063,,,,2026-04-17 06:54:47.340852 UTC,2026-04-17 06:54:47.340852,6.16112391
1776408887348544684,0.061,,,,2026-04-17 06:54:47.348544 UTC,2026-04-17 06:54:47.348544,6.1688157
1776408887356236486,0.039,,,,2026-04-17 06:54:47.356236 UTC,2026-04-17 06:54:47.356236,6.176507502
1776408887363928276,0.029,,,,2026-04-17 06:54:47.363928 UTC,2026-04-17 06:54:47.363928,6.184199292
1776408887371620066,0.029,,,,2026-04-17 06:54:47.371620 UTC,2026-04-17 06:54:47.371620,6.191891082
1776408887379311856,0.034,,,,2026-04-17 06:54:47.379311 UTC,2026-04-17 06:54:47.379311,6.199582872
1776408887387003646,0.039,,,,2026-04-17 06:54:47.387003 UTC,2026-04-17 06:54:47.387003,6.207274662
1776408887394695436,0.029,,,,2026-04-17 06:54:47.394695 UTC,2026-04-17 06:54:47.394695,6.214966452
1776408887402387226,0.012,,,,2026-04-17 06:54:47.402387 UTC,2026-04-17 06:54:47.402387,6.222658242
1776408887410079016,0.103,,,,2026-04-17 06:54:47.410079 UTC,2026-04-17 06:54:47.410079,6.230350032
1776408887417770806,0.488,,,,2026-04-17 06:54:47.417770 UTC,2026-04-17 06:54:47.417770,6.238041822
1776408887425462596,1.167,,,,2026-04-17 06:54:47.425462 UTC,2026-04-17 06:54:47.425462,6.245733612
1776408887433154386,1.369,,754.0,,2026-04-17 06:54:47.433154 UTC,2026-04-17 06:54:47.433154,6.253425402
1776408887440846176,0.139,,,,2026-04-17 06:54:47.440846 UTC,2026-04-17 06:54:47.440846,6.261117192
1776408887448537966,-1.535,,,,2026-04-17 06:54:47.448537 UTC,2026-04-17 06:54:47.448537,6.268808982
1776408887456229756,-1.685,,,,2026-04-17 06:54:47.456229 UTC,2026-04-17 06:54:47.456229,6.276500772
1776408887463921546,-0.787,,,,2026-04-17 06:54:47.463921 UTC,2026-04-17 06:54:47.463921,6.284192562
1776408887471613336,-0.353,,,,2026-04-17 06:54:47.471613 UTC,2026-04-17 06:54:47.471613,6.291884352
1776408887479305126,-0.134,,,,2026-04-17 06:54:47.479305 UTC,2026-04-17 06:54:47.479305,6.299576142
1776408887486996916,0.201,,,,2026-04-17 06:54:47.486996 UTC,2026-04-17 06:54:47.486996,6.307267932
1776408887494688706,0.235,,,,2026-04-17 06:54:47.494688 UTC,2026-04-17 06:54:47.494688,6.314959722
1776408887502380496,0.149,,,,2026-04-17 06:54:47.502380 UTC,2026-04-17 06:54:47.502380,6.322651512
1776408887510072286,0.223,,,,2026-04-17 06:54:47.510072 UTC,2026-04-17 06:54:47.510072,6.330343302
1776408887517764076,0.274,,,,2026-04-17 06:54:47.517764 UTC,2026-04-17 06:54:47.517764,6.338035092
1776408887525455866,0.242,,,,2026-04-17 06:54:47.525455 UTC,2026-04-17 06:54:47.525455,6.345726882
1776408887533147656,0.25,,,,2026-04-17 06:54:47.533147 UTC,2026-04-17 06:54:47.533147,6.353418672
1776408887540839446,0.269,,,,2026-04-17 06:54:47.540839 UTC,2026-04-17 06:54:47.540839,6.361110462
1776408887548531236,0.267,,,,2026-04-17 06:54:47.548531 UTC,2026-04-17 06:54:47.548531,6.368802252
1776408887556223026,0.279,,,,2026-04-17 06:54:47.556223 UTC,2026-04-17 06:54:47.556223,6.376494042
1776408887563914816,0.296,,,,2026-04-17 06:54:47.563914 UTC,2026-04-17 06:54:47.563914,6.384185832
1776408887571606606,0.294,,,,2026-04-17 06:54:47.571606 UTC,2026-04-17 06:54:47.571606,6.391877622
1776408887579298396,0.301,,,,2026-04-17 06:54:47.579298 UTC,2026-04-17 06:54:47.579298,6.399569412
1776408887586990186,0.321,,,,2026-04-17 06:54:47.586990 UTC,2026-04-17 06:54:47.586990,6.407261202
1776408887594681976,0.338,,,,2026-04-17 06:54:47.594681 UTC,2026-04-17 06:54:47.594681,6.414952992
1776408887602373766,0.35,,,,2026-04-17 06:54:47.602373 UTC,2026-04-17 06:54:47.602373,6.422644782
1776408887610065556,0.363,,,,2026-04-17 06:54:47.610065 UTC,2026-04-17 06:54:47.610065,6.430336572
1776408887617757346,0.372,,,,2026-04-17 06:54:47.617757 UTC,2026-04-17 06:54:47.617757,6.438028362
1776408887625449136,0.382,,,,2026-04-17 06:54:47.625449 UTC,2026-04-17 06:54:47.625449,6.445720152
1776408887633140926,0.39,,,,2026-04-17 06:54:47.633140 UTC,2026-04-17 06:54:47.633140,6.453411942
1776408887640832716,0.397,,,,2026-04-17 06:54:47.640832 UTC,2026-04-17 06:54:47.640832,6.461103732
1776408887648524506,0.392,,,,2026-04-17 06:54:47.648524 UTC,2026-04-17 06:54:47.648524,6.468795522
1776408887656216296,0.375,,,,2026-04-17 06:54:47.656216 UTC,2026-04-17 06:54:47.656216,6.476487312
1776408887663908086,0.355,,,,2026-04-17 06:54:47.663908 UTC,2026-04-17 06:54:47.663908,6.484179102
1776408887671599876,0.331,,,,2026-04-17 06:54:47.671599 UTC,2026-04-17 06:54:47.671599,6.491870892
1776408887679291666,0.294,,,,2026-04-17 06:54:47.679291 UTC,2026-04-17 06:54:47.679291,6.499562682
1776408887686983456,0.247,,,,2026-04-17 06:54:47.686983 UTC,2026-04-17 06:54:47.686983,6.507254472
1776408887694675246,0.213,,,,2026-04-17 06:54:47.694675 UTC,2026-04-17 06:54:47.694675,6.514946262
1776408887702367036,0.186,,,,2026-04-17 06:54:47.702367 UTC,2026-04-17 06:54:47.702367,6.522638052
1776408887710058826,0.142,,,,2026-04-17 06:54:47.710058 UTC,2026-04-17 06:54:47.710058,6.530329842
1776408887717750616,0.09,,,,2026-04-17 06:54:47.717750 UTC,2026-04-17 06:54:47.717750,6.538021632
1776408887725442406,0.063,,,,2026-04-17 06:54:47.725442 UTC,2026-04-17 06:54:47.725442,6.545713422
1776408887733134196,0.041,,,,2026-04-17 06:54:47.733134 UTC,2026-04-17 06:54:47.733134,6.553405212
1776408887740825986,0.0,,,,2026-04-17 06:54:47.740825 UTC,2026-04-17 06:54:47.740825,6.561097002
1776408887748517776,-0.029,,,,2026-04-17 06:54:47.748517 UTC,2026-04-17 06:54:47.748517,6.568788792
1776408887756209566,-0.019,,,,2026-04-17 06:54:47.756209 UTC,2026-04-17 06:54:47.756209,6.576480582
1776408887763901356,-0.009,,,,2026-04-17 06:54:47.763901 UTC,2026-04-17 06:54:47.763901,6.584172372
1776408887771593146,-0.019,,,,2026-04-17 06:54:47.771593 UTC,2026-04-17 06:54:47.771593,6.591864162
1776408887779284936,-0.019,,,,2026-04-17 06:54:47.779284 UTC,2026-04-17 06:54:47.779284,6.599555952
1776408887786976726,0.004,,,,2026-04-17 06:54:47.786976 UTC,2026-04-17 06:54:47.786976,6.607247742
1776408887794668516,0.014,,,,2026-04-17 06:54:47.794668 UTC,2026-04-17 06:54:47.794668,6.614939532
1776408887802360306,0.012,,,,2026-04-17 06:54:47.802360 UTC,2026-04-17 06:54:47.802360,6.622631322
1776408887810052096,0.026,,,,2026-04-17 06:54:47.810052 UTC,2026-04-17 06:54:47.810052,6.630323112
1776408887817743886,0.036,,,,2026-04-17 06:54:47.817743 UTC,2026-04-17 06:54:47.817743,6.638014902
1776408887825435676,0.034,,,,2026-04-17 06:54:47.825435 UTC,2026-04-17 06:54:47.825435,6.645706692
1776408887833127466,0.039,,,,2026-04-17 06:54:47.833127 UTC,2026-04-17 06:54:47.833127,6.653398482
1776408887840819256,0.049,,,,2026-04-17 06:54:47.840819 UTC,2026-04-17 06:54:47.840819,6.661090272
1776408887848511046,0.056,,,,2026-04-17 06:54:47.848511 UTC,2026-04-17 06:54:47.848511,6.668782062
1776408887856202836,0.058,,,,2026-04-17 06:54:47.856202 UTC,2026-04-17 06:54:47.856202,6.676473852
1776408887863894626,0.058,,,,2026-04-17 06:54:47.863894 UTC,2026-04-17 06:54:47.863894,6.684165642
1776408887871586416,0.058,,,,2026-04-17 06:54:47.871586 UTC,2026-04-17 06:54:47.871586,6.691857432
1776408887879278206,0.056,,,,2026-04-17 06:54:47.879278 UTC,2026-04-17 06:54:47.879278,6.699549222
1776408887886969996,0.056,,,,2026-04-17 06:54:47.886969 UTC,2026-04-17 06:54:47.886969,6.707241012
1776408887894661786,0.051,,,,2026-04-17 06:54:47.894661 UTC,2026-04-17 06:54:47.894661,6.714932802
1776408887902353576,0.046,,,,2026-04-17 06:54:47.902353 UTC,2026-04-17 06:54:47.902353,6.722624592
1776408887910045366,0.051,,,,2026-04-17 06:54:47.910045 UTC,2026-04-17 06:54:47.910045,6.730316382
1776408887917737168,0.046,76.0,,,2026-04-17 06:54:47.917737 UTC,2026-04-17 06:54:47.917737,6.738008184
1776408887925428749,0.036,,,,2026-04-17 06:54:47.925428 UTC,2026-04-17 06:54:47.925428,6.745699765
1776408887933120330,0.039,,,,2026-04-17 06:54:47.933120 UTC,2026-04-17 06:54:47.933120,6.753391346
1776408887940811911,0.039,,,,2026-04-17 06:54:47.940811 UTC,2026-04-17 06:54:47.940811,6.761082927
1776408887948503492,0.041,,,,2026-04-17 06:54:47.948503 UTC,2026-04-17 06:54:47.948503,6.768774508
1776408887956195073,0.044,,,,2026-04-17 06:54:47.956195 UTC,2026-04-17 06:54:47.956195,6.776466089
1776408887963886654,0.034,,,,2026-04-17 06:54:47.963886 UTC,2026-04-17 06:54:47.963886,6.78415767
1776408887971578235,0.031,,,,2026-04-17 06:54:47.971578 UTC,2026-04-17 06:54:47.971578,6.791849251
1776408887979269816,0.044,,,,2026-04-17 06:54:47.979269 UTC,2026-04-17 06:54:47.979269,6.799540832
1776408887986961397,0.051,,,,2026-04-17 06:54:47.986961 UTC,2026-04-17 06:54:47.986961,6.807232413
1776408887994652978,0.044,,,,2026-04-17 06:54:47.994652 UTC,2026-04-17 06:54:47.994652,6.814923994
1776408888002344559,0.051,,,,2026-04-17 06:54:48.002344 UTC,2026-04-17 06:54:48.002344,6.822615575
1776408888010036140,0.056,,,,2026-04-17 06:54:48.010036 UTC,2026-04-17 06:54:48.010036,6.830307156
1776408888017727721,0.036,,,,2026-04-17 06:54:48.017727 UTC,2026-04-17 06:54:48.017727,6.837998737
1776408888025419302,0.031,,,,2026-04-17 06:54:48.025419 UTC,2026-04-17 06:54:48.025419,6.845690318
1776408888033110883,0.036,,,,2026-04-17 06:54:48.033110 UTC,2026-04-17 06:54:48.033110,6.853381899
1776408888040802464,0.031,,,,2026-04-17 06:54:48.040802 UTC,2026-04-17 06:54:48.040802,6.86107348
1776408888048494045,0.031,,,,2026-04-17 06:54:48.048494 UTC,2026-04-17 06:54:48.048494,6.868765061
1776408888056185626,0.031,,,,2026-04-17 06:54:48.056185 UTC,2026-04-17 06:54:48.056185,6.876456642
1776408888063877207,0.024,,,,2026-04-17 06:54:48.063877 UTC,2026-04-17 06:54:48.063877,6.884148223
1776408888071568788,0.036,,,,2026-04-17 06:54:48.071568 UTC,2026-04-17 06:54:48.071568,6.891839804
1776408888079260369,0.051,,,,2026-04-17 06:54:48.079260 UTC,2026-04-17 06:54:48.079260,6.899531385
1776408888086951950,0.051,,,,2026-04-17 06:54:48.086951 UTC,2026-04-17 06:54:48.086951,6.907222966
1776408888094643531,0.056,,,,2026-04-17 06:54:48.094643 UTC,2026-04-17 06:54:48.094643,6.914914547
1776408888102335112,0.071,,,,2026-04-17 06:54:48.102335 UTC,2026-04-17 06:54:48.102335,6.922606128
1776408888110026693,0.076,,,,2026-04-17 06:54:48.110026 UTC,2026-04-17 06:54:48.110026,6.930297709
1776408888117718274,0.078,,,,2026-04-17 06:54:48.117718 UTC,2026-04-17 06:54:48.117718,6.93798929
1776408888125409855,0.085,,,,2026-04-17 06:54:48.125409 UTC,2026-04-17 06:54:48.125409,6.945680871
1776408888133101436,0.083,,,,2026-04-17 06:54:48.133101 UTC,2026-04-17 06:54:48.133101,6.953372452
1776408888140793017,0.066,,,,2026-04-17 06:54:48.140793 UTC,2026-04-17 06:54:48.140793,6.961064033
1776408888148484598,0.046,,,,2026-04-17 06:54:48.148484 UTC,2026-04-17 06:54:48.148484,6.968755614
1776408888156176179,0.026,,,,2026-04-17 06:54:48.156176 UTC,2026-04-17 06:54:48.156176,6.976447195
1776408888163867760,0.022,,,,2026-04-17 06:54:48.163867 UTC,2026-04-17 06:54:48.163867,6.984138776
1776408888171559341,0.024,,,,2026-04-17 06:54:48.171559 UTC,2026-04-17 06:54:48.171559,6.991830357
1776408888179250922,0.026,,,,2026-04-17 06:54:48.179250 UTC,2026-04-17 06:54:48.179250,6.999521938
1776408888186942503,0.041,,,,2026-04-17 06:54:48.186942 UTC,2026-04-17 06:54:48.186942,7.007213519
1776408888194634084,0.058,,,,2026-04-17 06:54:48.194634 UTC,2026-04-17 06:54:48.194634,7.0149051
1776408888202325665,0.058,,,,2026-04-17 06:54:48.202325 UTC,2026-04-17 06:54:48.202325,7.022596681
1776408888210017246,0.11,,775.0,,2026-04-17 06:54:48.210017 UTC,2026-04-17 06:54:48.210017,7.030288262
1776408888217708827,0.446,,,,2026-04-17 06:54:48.217708 UTC,2026-04-17 06:54:48.217708,7.037979843
1776408888225400408,1.113,,,,2026-04-17 06:54:48.225400 UTC,2026-04-17 06:54:48.225400,7.045671424
1776408888233091989,1.324,,,,2026-04-17 06:54:48.233091 UTC,2026-04-17 06:54:48.233091,7.053363005
1776408888240783570,0.137,,,,2026-04-17 06:54:48.240783 UTC,2026-04-17 06:54:48.240783,7.061054586
1776408888248475151,-1.462,,,,2026-04-17 06:54:48.248475 UTC,2026-04-17 06:54:48.248475,7.068746167
1776408888256166732,-1.599,,,,2026-04-17 06:54:48.256166 UTC,2026-04-17 06:54:48.256166,7.076437748
1776408888263858313,-0.753,,,,2026-04-17 06:54:48.263858 UTC,2026-04-17 06:54:48.263858,7.084129329
1776408888271549894,-0.338,,,,2026-04-17 06:54:48.271549 UTC,2026-04-17 06:54:48.271549,7.09182091
1776408888279241475,-0.127,,,,2026-04-17 06:54:48.279241 UTC,2026-04-17 06:54:48.279241,7.099512491
1776408888286933056,0.186,,,,2026-04-17 06:54:48.286933 UTC,2026-04-17 06:54:48.286933,7.107204072
1776408888294624637,0.233,,,,2026-04-17 06:54:48.294624 UTC,2026-04-17 06:54:48.294624,7.114895653
1776408888302316218,0.161,,,,2026-04-17 06:54:48.302316 UTC,2026-04-17 06:54:48.302316,7.122587234
1776408888310007799,0.228,,,,2026-04-17 06:54:48.310007 UTC,2026-04-17 06:54:48.310007,7.130278815
1776408888317699380,0.267,,,,2026-04-17 06:54:48.317699 UTC,2026-04-17 06:54:48.317699,7.137970396
1776408888325390961,0.245,,,,2026-04-17 06:54:48.325390 UTC,2026-04-17 06:54:48.325390,7.145661977
1776408888333082542,0.255,,,,2026-04-17 06:54:48.333082 UTC,2026-04-17 06:54:48.333082,7.153353558
1776408888340774123,0.274,,,,2026-04-17 06:54:48.340774 UTC,2026-04-17 06:54:48.340774,7.161045139
1776408888348465704,0.267,,,,2026-04-17 06:54:48.348465 UTC,2026-04-17 06:54:48.348465,7.16873672
1776408888356157285,0.267,,,,2026-04-17 06:54:48.356157 UTC,2026-04-17 06:54:48.356157,7.176428301
1776408888363848866,0.287,,,,2026-04-17 06:54:48.363848 UTC,2026-04-17 06:54:48.363848,7.184119882
1776408888371540447,0.306,,,,2026-04-17 06:54:48.371540 UTC,2026-04-17 06:54:48.371540,7.191811463
1776408888379232028,0.309,,,,2026-04-17 06:54:48.379232 UTC,2026-04-17 06:54:48.379232,7.199503044
1776408888386923609,0.306,,,,2026-04-17 06:54:48.386923 UTC,2026-04-17 06:54:48.386923,7.207194625
1776408888394615190,0.318,,,,2026-04-17 06:54:48.394615 UTC,2026-04-17 06:54:48.394615,7.214886206
1776408888402306771,0.336,,,,2026-04-17 06:54:48.402306 UTC,2026-04-17 06:54:48.402306,7.222577787
1776408888409998352,0.343,,,,2026-04-17 06:54:48.409998 UTC,2026-04-17 06:54:48.409998,7.230269368
1776408888417689933,0.353,,,,2026-04-17 06:54:48.417689 UTC,2026-04-17 06:54:48.417689,7.237960949
1776408888425381514,0.368,,,,2026-04-17 06:54:48.425381 UTC,2026-04-17 06:54:48.425381,7.24565253
1776408888433073095,0.375,,,,2026-04-17 06:54:48.433073 UTC,2026-04-17 06:54:48.433073,7.253344111
1776408888440764676,0.375,,,,2026-04-17 06:54:48.440764 UTC,2026-04-17 06:54:48.440764,7.261035692
1776408888448456257,0.375,,,,2026-04-17 06:54:48.448456 UTC,2026-04-17 06:54:48.448456,7.268727273
1776408888456147838,0.363,,,,2026-04-17 06:54:48.456147 UTC,2026-04-17 06:54:48.456147,7.276418854
1776408888463839419,0.341,,,,2026-04-17 06:54:48.463839 UTC,2026-04-17 06:54:48.463839,7.284110435
1776408888471531000,0.314,,,,2026-04-17 06:54:48.471531 UTC,2026-04-17 06:54:48.471531,7.291802016
1776408888479222590,0.277,76.0,,,2026-04-17 06:54:48.479222 UTC,2026-04-17 06:54:48.479222,7.299493606
1776408888486914449,0.247,,,,2026-04-17 06:54:48.486914 UTC,2026-04-17 06:54:48.486914,7.307185465
1776408888494606308,0.22,,,,2026-04-17 06:54:48.494606 UTC,2026-04-17 06:54:48.494606,7.314877324
1776408888502298167,0.176,,,,2026-04-17 06:54:48.502298 UTC,2026-04-17 06:54:48.502298,7.322569183
1776408888509990026,0.13,,,,2026-04-17 06:54:48.509990 UTC,2026-04-17 06:54:48.509990,7.330261042
1776408888517681885,0.1,,,,2026-04-17 06:54:48.517681 UTC,2026-04-17 06:54:48.517681,7.337952901
1776408888525373744,0.066,,,,2026-04-17 06:54:48.525373 UTC,2026-04-17 06:54:48.525373,7.34564476
1776408888533065603,0.036,,,,2026-04-17 06:54:48.533065 UTC,2026-04-17 06:54:48.533065,7.353336619
1776408888540757462,0.024,,,,2026-04-17 06:54:48.540757 UTC,2026-04-17 06:54:48.540757,7.361028478
1776408888548449321,0.012,,,,2026-04-17 06:54:48.548449 UTC,2026-04-17 06:54:48.548449,7.368720337
1776408888556141180,-0.007,,,,2026-04-17 06:54:48.556141 UTC,2026-04-17 06:54:48.556141,7.376412196
1776408888563833039,-0.009,,,,2026-04-17 06:54:48.563833 UTC,2026-04-17 06:54:48.563833,7.384104055
1776408888571524898,0.004,,,,2026-04-17 06:54:48.571524 UTC,2026-04-17 06:54:48.571524,7.391795914
1776408888579216757,0.014,,,,2026-04-17 06:54:48.579216 UTC,2026-04-17 06:54:48.579216,7.399487773
1776408888586908616,0.017,,,,2026-04-17 06:54:48.586908 UTC,2026-04-17 06:54:48.586908,7.407179632
1776408888594600475,0.024,,,,2026-04-17 06:54:48.594600 UTC,2026-04-17 06:54:48.594600,7.414871491
1776408888602292334,0.026,,,,2026-04-17 06:54:48.602292 UTC,2026-04-17 06:54:48.602292,7.42256335
1776408888609984193,0.029,,,,2026-04-17 06:54:48.609984 UTC,2026-04-17 06:54:48.609984,7.430255209
1776408888617676052,0.036,,,,2026-04-17 06:54:48.617676 UTC,2026-04-17 06:54:48.617676,7.437947068
1776408888625367911,0.044,,,,2026-04-17 06:54:48.625367 UTC,2026-04-17 06:54:48.625367,7.445638927
1776408888633059770,0.039,,,,2026-04-17 06:54:48.633059 UTC,2026-04-17 06:54:48.633059,7.453330786
1776408888640751629,0.034,,,,2026-04-17 06:54:48.640751 UTC,2026-04-17 06:54:48.640751,7.461022645
1776408888648443488,0.053,,,,2026-04-17 06:54:48.648443 UTC,2026-04-17 06:54:48.648443,7.468714504
1776408888656135347,0.066,,,,2026-04-17 06:54:48.656135 UTC,2026-04-17 06:54:48.656135,7.476406363
1776408888663827206,0.056,,,,2026-04-17 06:54:48.663827 UTC,2026-04-17 06:54:48.663827,7.484098222
1776408888671519065,0.053,,,,2026-04-17 06:54:48.671519 UTC,2026-04-17 06:54:48.671519,7.491790081
1776408888679210924,0.056,,,,2026-04-17 06:54:48.679210 UTC,2026-04-17 06:54:48.679210,7.49948194
1776408888686902783,0.051,,,,2026-04-17 06:54:48.686902 UTC,2026-04-17 06:54:48.686902,7.507173799
1776408888694594642,0.049,,,,2026-04-17 06:54:48.694594 UTC,2026-04-17 06:54:48.694594,7.514865658
1776408888702286501,0.051,,,,2026-04-17 06:54:48.702286 UTC,2026-04-17 06:54:48.702286,7.522557517
1776408888709978360,0.051,,,,2026-04-17 06:54:48.709978 UTC,2026-04-17 06:54:48.709978,7.530249376
1776408888717670219,0.049,,,,2026-04-17 06:54:48.717670 UTC,2026-04-17 06:54:48.717670,7.537941235
1776408888725362078,0.046,,,,2026-04-17 06:54:48.725362 UTC,2026-04-17 06:54:48.725362,7.545633094
1776408888733053937,0.041,,,,2026-04-17 06:54:48.733053 UTC,2026-04-17 06:54:48.733053,7.553324953
1776408888740745796,0.036,,,,2026-04-17 06:54:48.740745 UTC,2026-04-17 06:54:48.740745,7.561016812
1776408888748437655,0.034,,,,2026-04-17 06:54:48.748437 UTC,2026-04-17 06:54:48.748437,7.568708671
1776408888756129514,0.022,,,,2026-04-17 06:54:48.756129 UTC,2026-04-17 06:54:48.756129,7.57640053
1776408888763821373,0.009,,,,2026-04-17 06:54:48.763821 UTC,2026-04-17 06:54:48.763821,7.584092389
1776408888771513232,0.012,,,,2026-04-17 06:54:48.771513 UTC,2026-04-17 06:54:48.771513,7.591784248
1776408888779205091,0.024,,,,2026-04-17 06:54:48.779205 UTC,2026-04-17 06:54:48.779205,7.599476107
1776408888786896950,0.029,,,,2026-04-17 06:54:48.786896 UTC,2026-04-17 06:54:48.786896,7.607167966
1776408888794588809,0.024,,,,2026-04-17 06:54:48.794588 UTC,2026-04-17 06:54:48.794588,7.614859825
1776408888802280668,0.022,,,,2026-04-17 06:54:48.802280 UTC,2026-04-17 06:54:48.802280,7.622551684
1776408888809972527,0.024,,,,2026-04-17 06:54:48.809972 UTC,2026-04-17 06:54:48.809972,7.630243543
1776408888817664386,0.022,,,,2026-04-17 06:54:48.817664 UTC,2026-04-17 06:54:48.817664,7.637935402
1776408888825356245,0.019,,,,2026-04-17 06:54:48.825356 UTC,2026-04-17 06:54:48.825356,7.645627261
1776408888833048104,0.024,,,,2026-04-17 06:54:48.833048 UTC,2026-04-17 06:54:48.833048,7.65331912
1776408888840739963,0.022,,,,2026-04-17 06:54:48.840739 UTC,2026-04-17 06:54:48.840739,7.661010979
1776408888848431822,0.014,,,,2026-04-17 06:54:48.848431 UTC,2026-04-17 06:54:48.848431,7.668702838
1776408888856123681,0.017,,,,2026-04-17 06:54:48.856123 UTC,2026-04-17 06:54:48.856123,7.676394697
1776408888863815540,0.022,,,,2026-04-17 06:54:48.863815 UTC,2026-04-17 06:54:48.863815,7.684086556
1776408888871507399,0.026,,,,2026-04-17 06:54:48.871507 UTC,2026-04-17 06:54:48.871507,7.691778415
1776408888879199258,0.029,,,,2026-04-17 06:54:48.879199 UTC,2026-04-17 06:54:48.879199,7.699470274
1776408888886891117,0.026,,,,2026-04-17 06:54:48.886891 UTC,2026-04-17 06:54:48.886891,7.707162133
1776408888894582976,0.024,,,,2026-04-17 06:54:48.894582 UTC,2026-04-17 06:54:48.894582,7.714853992
1776408888902274835,0.031,,,,2026-04-17 06:54:48.902274 UTC,2026-04-17 06:54:48.902274,7.722545851
1776408888909966694,0.044,,,,2026-04-17 06:54:48.909966 UTC,2026-04-17 06:54:48.909966,7.73023771
1776408888917658553,0.051,,,,2026-04-17 06:54:48.917658 UTC,2026-04-17 06:54:48.917658,7.737929569
1776408888925350412,0.066,,,,2026-04-17 06:54:48.925350 UTC,2026-04-17 06:54:48.925350,7.745621428
1776408888933042271,0.078,,,,2026-04-17 06:54:48.933042 UTC,2026-04-17 06:54:48.933042,7.753313287
1776408888940734130,0.071,,,,2026-04-17 06:54:48.940734 UTC,2026-04-17 06:54:48.940734,7.761005146
1776408888948425989,0.068,,,,2026-04-17 06:54:48.948425 UTC,2026-04-17 06:54:48.948425,7.768697005
1776408888956117848,0.068,,,,2026-04-17 06:54:48.956117 UTC,2026-04-17 06:54:48.956117,7.776388864
1776408888963809707,0.053,,,,2026-04-17 06:54:48.963809 UTC,2026-04-17 06:54:48.963809,7.784080723
1776408888971501566,0.036,,768.0,,2026-04-17 06:54:48.971501 UTC,2026-04-17 06:54:48.971501,7.791772582
1776408888979193425,0.034,,,,2026-04-17 06:54:48.979193 UTC,2026-04-17 06:54:48.979193,7.799464441
1776408888986885284,0.039,,,,2026-04-17 06:54:48.986885 UTC,2026-04-17 06:54:48.986885,7.8071563
1776408888994577143,0.034,,,,2026-04-17 06:54:48.994577 UTC,2026-04-17 06:54:48.994577,7.814848159
1776408889002269002,0.036,,,,2026-04-17 06:54:49.002269 UTC,2026-04-17 06:54:49.002269,7.822540018
1776408889009960861,0.044,,,,2026-04-17 06:54:49.009960 UTC,2026-04-17 06:54:49.009960,7.830231877
1776408889017652720,0.051,,,,2026-04-17 06:54:49.017652 UTC,2026-04-17 06:54:49.017652,7.837923736
1776408889025344579,0.147,,,,2026-04-17 06:54:49.025344 UTC,2026-04-17 06:54:49.025344,7.845615595
1776408889033036438,0.539,,,,2026-04-17 06:54:49.033036 UTC,2026-04-17 06:54:49.033036,7.853307454
1776408889040728358,1.19,,,,2026-04-17 06:54:49.040728 UTC,2026-04-17 06:54:49.040728,7.860999374
1776408889048419869,1.192,,,,2026-04-17 06:54:49.048419 UTC,2026-04-17 06:54:49.048419,7.868690885
1776408889056111380,-0.188,,,,2026-04-17 06:54:49.056111 UTC,2026-04-17 06:54:49.056111,7.876382396
1776408889063802891,-1.567,,,,2026-04-17 06:54:49.063802 UTC,2026-04-17 06:54:49.063802,7.884073907
1776408889071494402,-1.408,,,,2026-04-17 06:54:49.071494 UTC,2026-04-17 06:54:49.071494,7.891765418
1776408889079185913,-0.652,,,,2026-04-17 06:54:49.079185 UTC,2026-04-17 06:54:49.079185,7.899456929
1776408889086877424,-0.368,,,,2026-04-17 06:54:49.086877 UTC,2026-04-17 06:54:49.086877,7.90714844
1776408889094568935,-0.103,,,,2026-04-17 06:54:49.094568 UTC,2026-04-17 06:54:49.094568,7.914839951
1776408889102260446,0.213,,,,2026-04-17 06:54:49.102260 UTC,2026-04-17 06:54:49.102260,7.922531462
1776408889109951957,0.22,,,,2026-04-17 06:54:49.109951 UTC,2026-04-17 06:54:49.109951,7.930222973
1776408889117643468,0.166,,,,2026-04-17 06:54:49.117643 UTC,2026-04-17 06:54:49.117643,7.937914484
1776408889125334979,0.238,,,,2026-04-17 06:54:49.125334 UTC,2026-04-17 06:54:49.125334,7.945605995
1776408889133026490,0.262,,,,2026-04-17 06:54:49.133026 UTC,2026-04-17 06:54:49.133026,7.953297506
1776408889140718001,0.245,,,,2026-04-17 06:54:49.140718 UTC,2026-04-17 06:54:49.140718,7.960989017
1776408889148409512,0.264,,,,2026-04-17 06:54:49.148409 UTC,2026-04-17 06:54:49.148409,7.968680528
1776408889156101023,0.277,,,,2026-04-17 06:54:49.156101 UTC,2026-04-17 06:54:49.156101,7.976372039
1776408889163792534,0.272,,,,2026-04-17 06:54:49.163792 UTC,2026-04-17 06:54:49.163792,7.98406355
1776408889171484045,0.279,,,,2026-04-17 06:54:49.171484 UTC,2026-04-17 06:54:49.171484,7.991755061
1776408889179175556,0.289,,,,2026-04-17 06:54:49.179175 UTC,2026-04-17 06:54:49.179175,7.999446572
1776408889186867067,0.291,,,,2026-04-17 06:54:49.186867 UTC,2026-04-17 06:54:49.186867,8.007138083
1776408889194558578,0.304,,,,2026-04-17 06:54:49.194558 UTC,2026-04-17 06:54:49.194558,8.014829594
1776408889202250089,0.318,,,,2026-04-17 06:54:49.202250 UTC,2026-04-17 06:54:49.202250,8.022521105
1776408889209941600,0.328,,,,2026-04-17 06:54:49.209941 UTC,2026-04-17 06:54:49.209941,8.030212616
1776408889217633111,0.336,,,,2026-04-17 06:54:49.217633 UTC,2026-04-17 06:54:49.217633,8.037904127
1776408889225324622,0.348,,,,2026-04-17 06:54:49.225324 UTC,2026-04-17 06:54:49.225324,8.045595638
1776408889233016133,0.355,,,,2026-04-17 06:54:49.233016 UTC,2026-04-17 06:54:49.233016,8.053287149
1776408889240707644,0.365,,,,2026-04-17 06:54:49.240707 UTC,2026-04-17 06:54:49.240707,8.06097866
1776408889248399155,0.382,,,,2026-04-17 06:54:49.248399 UTC,2026-04-17 06:54:49.248399,8.068670171
1776408889256090666,0.387,,,,2026-04-17 06:54:49.256090 UTC,2026-04-17 06:54:49.256090,8.076361682
1776408889263782177,0.37,,,,2026-04-17 06:54:49.263782 UTC,2026-04-17 06:54:49.263782,8.084053193
1776408889271473688,0.341,,,,2026-04-17 06:54:49.271473 UTC,2026-04-17 06:54:49.271473,8.091744704
1776408889279165199,0.321,,,,2026-04-17 06:54:49.279165 UTC,2026-04-17 06:54:49.279165,8.099436215
1776408889286856710,0.294,,,,2026-04-17 06:54:49.286856 UTC,2026-04-17 06:54:49.286856,8.107127726
1776408889294548221,0.257,,,,2026-04-17 06:54:49.294548 UTC,2026-04-17 06:54:49.294548,8.114819237
1776408889302239732,0.22,,,,2026-04-17 06:54:49.302239 UTC,2026-04-17 06:54:49.302239,8.122510748
1776408889309931243,0.179,,,,2026-04-17 06:54:49.309931 UTC,2026-04-17 06:54:49.309931,8.130202259
1776408889317622754,0.142,,,,2026-04-17 06:54:49.317622 UTC,2026-04-17 06:54:49.317622,8.13789377
1776408889325314265,0.11,,,,2026-04-17 06:54:49.325314 UTC,2026-04-17 06:54:49.325314,8.145585281
1776408889333005776,0.076,,,,2026-04-17 06:54:49.333005 UTC,2026-04-17 06:54:49.333005,8.153276792
1776408889340697287,0.041,,,,2026-04-17 06:54:49.340697 UTC,2026-04-17 06:54:49.340697,8.160968303
1776408889348388798,0.022,,,,2026-04-17 06:54:49.348388 UTC,2026-04-17 06:54:49.348388,8.168659814
1776408889356080309,0.012,,,,2026-04-17 06:54:49.356080 UTC,2026-04-17 06:54:49.356080,8.176351325
1776408889363771820,0.004,,,,2026-04-17 06:54:49.363771 UTC,2026-04-17 06:54:49.363771,8.184042836
1776408889371463331,-0.002,,,,2026-04-17 06:54:49.371463 UTC,2026-04-17 06:54:49.371463,8.191734347
1776408889379154842,-0.009,,,,2026-04-17 06:54:49.379154 UTC,2026-04-17 06:54:49.379154,8.199425858
1776408889386846353,0.0,,,,2026-04-17 06:54:49.386846 UTC,2026-04-17 06:54:49.386846,8.207117369
1776408889394537864,0.009,,,,2026-04-17 06:54:49.394537 UTC,2026-04-17 06:54:49.394537,8.21480888
1776408889402229375,0.012,,,,2026-04-17 06:54:49.402229 UTC,2026-04-17 06:54:49.402229,8.222500391
1776408889409920886,0.019,,,,2026-04-17 06:54:49.409920 UTC,2026-04-17 06:54:49.409920,8.230191902
1776408889417612397,0.029,,,,2026-04-17 06:54:49.417612 UTC,2026-04-17 06:54:49.417612,8.237883413
1776408889425303908,0.034,,,,2026-04-17 06:54:49.425303 UTC,2026-04-17 06:54:49.425303,8.245574924
1776408889432995419,0.039,,,,2026-04-17 06:54:49.432995 UTC,2026-04-17 06:54:49.432995,8.253266435
1776408889440686930,0.046,,,,2026-04-17 06:54:49.440686 UTC,2026-04-17 06:54:49.440686,8.260957946
1776408889448378441,0.051,,,,2026-04-17 06:54:49.448378 UTC,2026-04-17 06:54:49.448378,8.268649457
1776408889456069952,0.056,,,,2026-04-17 06:54:49.456069 UTC,2026-04-17 06:54:49.456069,8.276340968
1776408889463761463,0.061,,,,2026-04-17 06:54:49.463761 UTC,2026-04-17 06:54:49.463761,8.284032479
1776408889471452974,0.063,,,,2026-04-17 06:54:49.471452 UTC,2026-04-17 06:54:49.471452,8.29172399
1776408889479144485,0.061,,,,2026-04-17 06:54:49.479144 UTC,2026-04-17 06:54:49.479144,8.299415501
1776408889486835996,0.058,,,,2026-04-17 06:54:49.486835 UTC,2026-04-17 06:54:49.486835,8.307107012
1776408889494527507,0.058,,,,2026-04-17 06:54:49.494527 UTC,2026-04-17 06:54:49.494527,8.314798523
1776408889502219018,0.051,,,,2026-04-17 06:54:49.502219 UTC,2026-04-17 06:54:49.502219,8.322490034
1776408889509910529,0.049,,,,2026-04-17 06:54:49.509910 UTC,2026-04-17 06:54:49.509910,8.330181545
1776408889517602040,0.051,,,,2026-04-17 06:54:49.517602 UTC,2026-04-17 06:54:49.517602,8.337873056
1776408889525293551,0.049,,,,2026-04-17 06:54:49.525293 UTC,2026-04-17 06:54:49.525293,8.345564567
1776408889532985062,0.041,,,,2026-04-17 06:54:49.532985 UTC,2026-04-17 06:54:49.532985,8.353256078
1776408889540676573,0.041,,,,2026-04-17 06:54:49.540676 UTC,2026-04-17 06:54:49.540676,8.360947589
1776408889548368084,0.044,,,,2026-04-17 06:54:49.548368 UTC,2026-04-17 06:54:49.548368,8.3686391
1776408889556059595,0.046,,,,2026-04-17 06:54:49.556059 UTC,2026-04-17 06:54:49.556059,8.376330611
1776408889563751106,0.049,,,,2026-04-17 06:54:49.563751 UTC,2026-04-17 06:54:49.563751,8.384022122
1776408889571442617,0.049,,,,2026-04-17 06:54:49.571442 UTC,2026-04-17 06:54:49.571442,8.391713633
1776408889579134128,0.041,,,,2026-04-17 06:54:49.579134 UTC,2026-04-17 06:54:49.579134,8.399405144
1776408889586825639,0.039,,,,2026-04-17 06:54:49.586825 UTC,2026-04-17 06:54:49.586825,8.407096655
1776408889594517150,0.044,,,,2026-04-17 06:54:49.594517 UTC,2026-04-17 06:54:49.594517,8.414788166
1776408889602208696,0.039,76.0,,,2026-04-17 06:54:49.602208 UTC,2026-04-17 06:54:49.602208,8.422479712
1776408889609900486,0.031,,,,2026-04-17 06:54:49.609900 UTC,2026-04-17 06:54:49.609900,8.430171502
1776408889617592276,0.034,,,,2026-04-17 06:54:49.617592 UTC,2026-04-17 06:54:49.617592,8.437863292
1776408889625284066,0.031,,,,2026-04-17 06:54:49.625284 UTC,2026-04-17 06:54:49.625284,8.445555082
1776408889632975856,0.029,,,,2026-04-17 06:54:49.632975 UTC,2026-04-17 06:54:49.632975,8.453246872
1776408889640667646,0.036,,,,2026-04-17 06:54:49.640667 UTC,2026-04-17 06:54:49.640667,8.460938662
1776408889648359436,0.046,,,,2026-04-17 06:54:49.648359 UTC,2026-04-17 06:54:49.648359,8.468630452
1776408889656051226,0.053,,,,2026-04-17 06:54:49.656051 UTC,2026-04-17 06:54:49.656051,8.476322242
1776408889663743016,0.053,,,,2026-04-17 06:54:49.663743 UTC,2026-04-17 06:54:49.663743,8.484014032
1776408889671434806,0.056,,,,2026-04-17 06:54:49.671434 UTC,2026-04-17 06:54:49.671434,8.491705822
1776408889679126596,0.066,,,,2026-04-17 06:54:49.679126 UTC,2026-04-17 06:54:49.679126,8.499397612
1776408889686818386,0.076,,,,2026-04-17 06:54:49.686818 UTC,2026-04-17 06:54:49.686818,8.507089402
1776408889694510176,0.078,,723.0,,2026-04-17 06:54:49.694510 UTC,2026-04-17 06:54:49.694510,8.514781192
1776408889702201966,0.078,,,,2026-04-17 06:54:49.702201 UTC,2026-04-17 06:54:49.702201,8.522472982
1776408889709893756,0.071,,,,2026-04-17 06:54:49.709893 UTC,2026-04-17 06:54:49.709893,8.530164772
1776408889717585546,0.051,,,,2026-04-17 06:54:49.717585 UTC,2026-04-17 06:54:49.717585,8.537856562
1776408889725277336,0.034,,,,2026-04-17 06:54:49.725277 UTC,2026-04-17 06:54:49.725277,8.545548352
1776408889732969126,0.029,,,,2026-04-17 06:54:49.732969 UTC,2026-04-17 06:54:49.732969,8.553240142
1776408889740660916,0.036,,,,2026-04-17 06:54:49.740660 UTC,2026-04-17 06:54:49.740660,8.560931932
1776408889748352706,0.046,,,,2026-04-17 06:54:49.748352 UTC,2026-04-17 06:54:49.748352,8.568623722
1776408889756044496,0.053,,,,2026-04-17 06:54:49.756044 UTC,2026-04-17 06:54:49.756044,8.576315512
1776408889763736286,0.049,,,,2026-04-17 06:54:49.763736 UTC,2026-04-17 06:54:49.763736,8.584007302
1776408889771428076,0.034,,,,2026-04-17 06:54:49.771428 UTC,2026-04-17 06:54:49.771428,8.591699092
1776408889779119866,0.1,,,,2026-04-17 06:54:49.779119 UTC,2026-04-17 06:54:49.779119,8.599390882
1776408889786811656,0.446,,,,2026-04-17 06:54:49.786811 UTC,2026-04-17 06:54:49.786811,8.607082672
1776408889794503446,1.123,,,,2026-04-17 06:54:49.794503 UTC,2026-04-17 06:54:49.794503,8.614774462
1776408889802195236,1.354,,,,2026-04-17 06:54:49.802195 UTC,2026-04-17 06:54:49.802195,8.622466252
1776408889809887026,0.154,,,,2026-04-17 06:54:49.809887 UTC,2026-04-17 06:54:49.809887,8.630158042
1776408889817578816,-1.479,,,,2026-04-17 06:54:49.817578 UTC,2026-04-17 06:54:49.817578,8.637849832
1776408889825270606,-1.607,,,,2026-04-17 06:54:49.825270 UTC,2026-04-17 06:54:49.825270,8.645541622
1776408889832962396,-0.76,,,,2026-04-17 06:54:49.832962 UTC,2026-04-17 06:54:49.832962,8.653233412
1776408889840654186,-0.368,,,,2026-04-17 06:54:49.840654 UTC,2026-04-17 06:54:49.840654,8.660925202
1776408889848345976,-0.137,,,,2026-04-17 06:54:49.848345 UTC,2026-04-17 06:54:49.848345,8.668616992
1776408889856037766,0.206,,,,2026-04-17 06:54:49.856037 UTC,2026-04-17 06:54:49.856037,8.676308782
1776408889863729556,0.247,,,,2026-04-17 06:54:49.863729 UTC,2026-04-17 06:54:49.863729,8.684000572
1776408889871421346,0.169,,,,2026-04-17 06:54:49.871421 UTC,2026-04-17 06:54:49.871421,8.691692362
1776408889879113136,0.242,,,,2026-04-17 06:54:49.879113 UTC,2026-04-17 06:54:49.879113,8.699384152
1776408889886804926,0.287,,,,2026-04-17 06:54:49.886804 UTC,2026-04-17 06:54:49.886804,8.707075942
1776408889894496716,0.255,,,,2026-04-17 06:54:49.894496 UTC,2026-04-17 06:54:49.894496,8.714767732
1776408889902188506,0.267,,,,2026-04-17 06:54:49.902188 UTC,2026-04-17 06:54:49.902188,8.722459522
1776408889909880296,0.291,,,,2026-04-17 06:54:49.909880 UTC,2026-04-17 06:54:49.909880,8.730151312
1776408889917572086,0.284,,,,2026-04-17 06:54:49.917572 UTC,2026-04-17 06:54:49.917572,8.737843102
1776408889925263876,0.289,,,,2026-04-17 06:54:49.925263 UTC,2026-04-17 06:54:49.925263,8.745534892
1776408889932955666,0.306,,,,2026-04-17 06:54:49.932955 UTC,2026-04-17 06:54:49.932955,8.753226682
1776408889940647456,0.314,,,,2026-04-17 06:54:49.940647 UTC,2026-04-17 06:54:49.940647,8.760918472
1776408889948339246,0.321,,,,2026-04-17 06:54:49.948339 UTC,2026-04-17 06:54:49.948339,8.768610262
1776408889956031036,0.331,,,,2026-04-17 06:54:49.956031 UTC,2026-04-17 06:54:49.956031,8.776302052
1776408889963722826,0.341,,,,2026-04-17 06:54:49.963722 UTC,2026-04-17 06:54:49.963722,8.783993842
1776408889971414616,0.355,,,,2026-04-17 06:54:49.971414 UTC,2026-04-17 06:54:49.971414,8.791685632
1776408889979106406,0.368,,,,2026-04-17 06:54:49.979106 UTC,2026-04-17 06:54:49.979106,8.799377422
1776408889986798196,0.38,,,,2026-04-17 06:54:49.986798 UTC,2026-04-17 06:54:49.986798,8.807069212
1776408889994489986,0.392,,,,2026-04-17 06:54:49.994489 UTC,2026-04-17 06:54:49.994489,8.814761002
1776408890002181776,0.402,,,,2026-04-17 06:54:50.002181 UTC,2026-04-17 06:54:50.002181,8.822452792
1776408890009873566,0.404,,,,2026-04-17 06:54:50.009873 UTC,2026-04-17 06:54:50.009873,8.830144582
1776408890017565356,0.402,,,,2026-04-17 06:54:50.017565 UTC,2026-04-17 06:54:50.017565,8.837836372
1776408890025257146,0.39,,,,2026-04-17 06:54:50.025257 UTC,2026-04-17 06:54:50.025257,8.845528162
1776408890032948936,0.37,,,,2026-04-17 06:54:50.032948 UTC,2026-04-17 06:54:50.032948,8.853219952
1776408890040640726,0.338,,,,2026-04-17 06:54:50.040640 UTC,2026-04-17 06:54:50.040640,8.860911742
1776408890048332516,0.299,,,,2026-04-17 06:54:50.048332 UTC,2026-04-17 06:54:50.048332,8.868603532
1776408890056024306,0.26,,,,2026-04-17 06:54:50.056024 UTC,2026-04-17 06:54:50.056024,8.876295322
1776408890063716096,0.215,,,,2026-04-17 06:54:50.063716 UTC,2026-04-17 06:54:50.063716,8.883987112
1776408890071407886,0.169,,,,2026-04-17 06:54:50.071407 UTC,2026-04-17 06:54:50.071407,8.891678902
1776408890079099676,0.132,,,,2026-04-17 06:54:50.079099 UTC,2026-04-17 06:54:50.079099,8.899370692
1776408890086791466,0.095,,,,2026-04-17 06:54:50.086791 UTC,2026-04-17 06:54:50.086791,8.907062482
1776408890094483256,0.061,,,,2026-04-17 06:54:50.094483 UTC,2026-04-17 06:54:50.094483,8.914754272
1776408890102175046,0.036,,,,2026-04-17 06:54:50.102175 UTC,2026-04-17 06:54:50.102175,8.922446062
1776408890109866836,0.017,,,,2026-04-17 06:54:50.109866 UTC,2026-04-17 06:54:50.109866,8.930137852
1776408890117558626,0.004,,,,2026-04-17 06:54:50.117558 UTC,2026-04-17 06:54:50.117558,8.937829642
1776408890125250416,0.004,,,,2026-04-17 06:54:50.125250 UTC,2026-04-17 06:54:50.125250,8.945521432
1776408890132942206,0.009,,,,2026-04-17 06:54:50.132942 UTC,2026-04-17 06:54:50.132942,8.953213222
1776408890140633996,0.009,,,,2026-04-17 06:54:50.140633 UTC,2026-04-17 06:54:50.140633,8.960905012
1776408890148325786,0.009,,,,2026-04-17 06:54:50.148325 UTC,2026-04-17 06:54:50.148325,8.968596802
1776408890156017576,0.017,,,,2026-04-17 06:54:50.156017 UTC,2026-04-17 06:54:50.156017,8.976288592
1776408890163709378,0.026,,,,2026-04-17 06:54:50.163709 UTC,2026-04-17 06:54:50.163709,8.983980394
1776408890171401168,0.034,,,,2026-04-17 06:54:50.171401 UTC,2026-04-17 06:54:50.171401,8.991672184
1776408890179092958,0.039,,,,2026-04-17 06:54:50.179092 UTC,2026-04-17 06:54:50.179092,8.999363974
1776408890186784748,0.044,,,,2026-04-17 06:54:50.186784 UTC,2026-04-17 06:54:50.186784,9.007055764
1776408890194476538,0.053,,,,2026-04-17 06:54:50.194476 UTC,2026-04-17 06:54:50.194476,9.014747554
1776408890202168328,0.063,,,,2026-04-17 06:54:50.202168 UTC,2026-04-17 06:54:50.202168,9.022439344
1776408890209860118,0.068,,,,2026-04-17 06:54:50.209860 UTC,2026-04-17 06:54:50.209860,9.030131134
1776408890217551908,0.068,,,,2026-04-17 06:54:50.217551 UTC,2026-04-17 06:54:50.217551,9.037822924
1776408890225243698,0.066,,,,2026-04-17 06:54:50.225243 UTC,2026-04-17 06:54:50.225243,9.045514714
1776408890232935488,0.058,,,,2026-04-17 06:54:50.232935 UTC,2026-04-17 06:54:50.232935,9.053206504
1776408890240627278,0.061,,,,2026-04-17 06:54:50.240627 UTC,2026-04-17 06:54:50.240627,9.060898294
1776408890248319068,0.061,,,,2026-04-17 06:54:50.248319 UTC,2026-04-17 06:54:50.248319,9.068590084
1776408890256010858,0.053,,,,2026-04-17 06:54:50.256010 UTC,2026-04-17 06:54:50.256010,9.076281874
1776408890263702648,0.041,,,,2026-04-17 06:54:50.263702 UTC,2026-04-17 06:54:50.263702,9.083973664
1776408890271394438,0.031,,,,2026-04-17 06:54:50.271394 UTC,2026-04-17 06:54:50.271394,9.091665454
1776408890279086228,0.022,,,,2026-04-17 06:54:50.279086 UTC,2026-04-17 06:54:50.279086,9.099357244
1776408890286778018,0.017,,,,2026-04-17 06:54:50.286778 UTC,2026-04-17 06:54:50.286778,9.107049034
1776408890294469808,0.019,,,,2026-04-17 06:54:50.294469 UTC,2026-04-17 06:54:50.294469,9.114740824
1776408890302161598,0.019,,,,2026-04-17 06:54:50.302161 UTC,2026-04-17 06:54:50.302161,9.122432614
1776408890309853388,0.004,,,,2026-04-17 06:54:50.309853 UTC,2026-04-17 06:54:50.309853,9.130124404
1776408890317545178,-0.002,,,,2026-04-17 06:54:50.317545 UTC,2026-04-17 06:54:50.317545,9.137816194
1776408890325236968,0.0,,,,2026-04-17 06:54:50.325236 UTC,2026-04-17 06:54:50.325236,9.145507984
1776408890332928758,0.0,,,,2026-04-17 06:54:50.332928 UTC,2026-04-17 06:54:50.332928,9.153199774
1776408890340620548,0.002,,,,2026-04-17 06:54:50.340620 UTC,2026-04-17 06:54:50.340620,9.160891564
1776408890348312338,0.009,,,,2026-04-17 06:54:50.348312 UTC,2026-04-17 06:54:50.348312,9.168583354
1776408890356004128,0.007,,,,2026-04-17 06:54:50.356004 UTC,2026-04-17 06:54:50.356004,9.176275144
1776408890363695918,0.002,,,,2026-04-17 06:54:50.363695 UTC,2026-04-17 06:54:50.363695,9.183966934
1776408890371387708,0.007,,,,2026-04-17 06:54:50.371387 UTC,2026-04-17 06:54:50.371387,9.191658724
1776408890379079498,0.014,,,,2026-04-17 06:54:50.379079 UTC,2026-04-17 06:54:50.379079,9.199350514
1776408890386771288,0.017,,,,2026-04-17 06:54:50.386771 UTC,2026-04-17 06:54:50.386771,9.207042304
1776408890394463078,0.022,,,,2026-04-17 06:54:50.394463 UTC,2026-04-17 06:54:50.394463,9.214734094
1776408890402154868,0.024,,,,2026-04-17 06:54:50.402154 UTC,2026-04-17 06:54:50.402154,9.222425884
1776408890409846658,0.024,,,,2026-04-17 06:54:50.409846 UTC,2026-04-17 06:54:50.409846,9.230117674
1776408890417538448,0.026,,,,2026-04-17 06:54:50.417538 UTC,2026-04-17 06:54:50.417538,9.237809464
1776408890425230238,0.029,,,,2026-04-17 06:54:50.425230 UTC,2026-04-17 06:54:50.425230,9.245501254
1776408890432922028,0.036,,,,2026-04-17 06:54:50.432922 UTC,2026-04-17 06:54:50.432922,9.253193044
1776408890440613818,0.044,,742.0,,2026-04-17 06:54:50.440613 UTC,2026-04-17 06:54:50.440613,9.260884834
1776408890448305608,0.053,,,,2026-04-17 06:54:50.448305 UTC,2026-04-17 06:54:50.448305,9.268576624
1776408890455997398,0.053,,,,2026-04-17 06:54:50.455997 UTC,2026-04-17 06:54:50.455997,9.276268414
1776408890463689188,0.053,,,,2026-04-17 06:54:50.463689 UTC,2026-04-17 06:54:50.463689,9.283960204
1776408890471380978,0.061,,,,2026-04-17 06:54:50.471380 UTC,2026-04-17 06:54:50.471380,9.291651994
1776408890479072768,0.076,,,,2026-04-17 06:54:50.479072 UTC,2026-04-17 06:54:50.479072,9.299343784
1776408890486764558,0.093,,,,2026-04-17 06:54:50.486764 UTC,2026-04-17 06:54:50.486764,9.307035574
1776408890494456348,0.107,,,,2026-04-17 06:54:50.494456 UTC,2026-04-17 06:54:50.494456,9.314727364
