UNIX Timestamp,ECG,HR,RR,Marker
1776408532484082266,0.152,75
1776408532491774056,0.309
1776408532499465846,0.213
1776408532507157636,0.23800000000000002
1776408532514849426,0.296
1776408532522541216,0.255
1776408532530233006,0.247
1776408532537924796,0.277
1776408532545616586,0.28700000000000003
1776408532553308376,0.294
1776408532561000166,0.296
1776408532568691956,0.289
1776408532576383746,0.301
1776408532584075536,0.321
1776408532591767326,0.336
1776408532599459116,0.336
1776408532607150906,0.341
1776408532614842696,0.358
1776408532622534486,0.382
1776408532630226276,0.399
1776408532637918066,0.399
1776408532645609856,0.399
1776408532653301646,0.392
1776408532660993436,0.358
1776408532668685226,0.331
1776408532676377016,0.306
1776408532684068806,0.264
1776408532691760596,0.223
1776408532699452386,0.179
1776408532707144176,0.122
1776408532714835966,0.085
1776408532722527756,0.063
1776408532730219546,0.036000000000000004
1776408532737911336,-0.002
1776408532745603126,-0.019
1776408532753294916,-0.004
1776408532760986706,0.0
1776408532768678496,-0.014
1776408532776370286,-0.022
1776408532784062076,-0.022
1776408532791753866,-0.022
1776408532799445656,-0.017
1776408532807137446,-0.009000000000000001
1776408532814829236,0.0
1776408532822521026,0.012
1776408532830212816,0.019
1776408532837904606,0.014
1776408532845596396,0.017
1776408532853288186,0.022
1776408532860979976,0.022
1776408532868671766,0.022
1776408532876363556,0.017
1776408532884055346,0.0
1776408532891747136,-0.002
1776408532899438926,0.004
1776408532907130716,0.004
1776408532914822506,0.0
1776408532922514296,0.002
1776408532930206086,0.009000000000000001
1776408532937897876,0.002
1776408532945589666,-0.004
1776408532953281456,0.0
1776408532960973246,0.007
1776408532968665036,0.017
1776408532976356826,0.019
1776408532984048616,0.019
1776408532991740406,0.022
1776408532999432196,0.026000000000000002
1776408533007123986,0.022
1776408533014815776,0.002
1776408533022507566,0.002,,777
1776408533030199356,0.041
1776408533037891146,0.066
1776408533045582948,0.049
1776408533053274807,0.034
1776408533060966666,0.039
1776408533068658525,0.061
1776408533076350384,0.093
1776408533084042243,0.10300000000000001
1776408533091734102,0.098
1776408533099425961,0.098
1776408533107117820,0.078
1776408533114809679,0.039
1776408533122501538,0.029
1776408533130193397,0.044
1776408533137885256,0.049
1776408533145577115,0.051000000000000004
1776408533153268974,0.056
1776408533160960833,0.058
1776408533168652692,0.056
1776408533176344551,0.149
1776408533184036410,0.5690000000000001
1776408533191728269,1.288
1776408533199420128,1.418
1776408533207111987,0.058
1776408533214803846,-1.599
1776408533222495705,-1.621
1776408533230187564,-0.6990000000000001
1776408533237879423,-0.309
1776408533245571282,-0.09
1776408533253263141,0.233
1776408533260955000,0.264
1776408533268646859,0.193
1776408533276338718,0.255
1776408533284030577,0.269
1776408533291722436,0.223
1776408533299414295,0.24
1776408533307106154,0.272
1776408533314798013,0.269
1776408533322489872,0.267
1776408533330181731,0.28400000000000003
1776408533337873590,0.296
1776408533345565449,0.296
1776408533353257308,0.309
1776408533360949167,0.323
1776408533368641026,0.333
1776408533376332885,0.34500000000000003
1776408533384024744,0.365
1776408533391716603,0.377
1776408533399408462,0.377
1776408533407100321,0.375
1776408533414792180,0.385
1776408533422484039,0.382
1776408533430175898,0.355
1776408533437867757,0.321
1776408533445559616,0.296
1776408533453251475,0.264
1776408533460943334,0.211
1776408533468635193,0.164
1776408533476327052,0.132
1776408533484018911,0.098
1776408533491710770,0.053
1776408533499402629,0.026000000000000002
1776408533507094488,0.019
1776408533514786347,0.007
1776408533522478206,-0.004
1776408533530170065,0.002
1776408533537861924,0.009000000000000001
1776408533545553783,0.009000000000000001
1776408533553245642,0.017
1776408533560937501,0.014
1776408533568629360,0.017
1776408533576321219,0.036000000000000004
1776408533584013078,0.044
1776408533591704937,0.044
1776408533599396796,0.056
1776408533607088716,0.056,75
1776408533614780575,0.036000000000000004
1776408533622472434,0.034
1776408533630164293,0.051000000000000004
1776408533637856152,0.056
1776408533645548011,0.041
1776408533653239870,0.031
1776408533660931729,0.039
1776408533668623588,0.036000000000000004
1776408533676315447,0.024
1776408533684007306,0.014
1776408533691699165,0.004
1776408533699391024,0.0
1776408533707082883,-0.002
1776408533714774742,-0.007
1776408533722466601,0.007
1776408533730158460,0.019
1776408533737850319,0.014
1776408533745542178,0.009000000000000001
1776408533753234037,0.017
1776408533760925896,0.019
1776408533768617755,0.019
1776408533776309614,0.019
1776408533784001473,0.022
1776408533791693332,0.019
1776408533799385191,0.017
1776408533807077050,0.026000000000000002
1776408533814768909,0.031
1776408533822460768,0.031
1776408533830152627,0.029
1776408533837844486,0.036000000000000004
1776408533845536345,0.058
1776408533853228204,0.078
1776408533860920063,0.083,,839
1776408533868611922,0.083
1776408533876303781,0.063
1776408533883995640,0.041
1776408533891687499,0.058
1776408533899379358,0.076
1776408533907071217,0.049
1776408533914763076,0.041
1776408533922454935,0.066
1776408533930146794,0.063
1776408533937838653,0.049
1776408533945530512,0.056
1776408533953222371,0.188
1776408533960914230,0.679
1776408533968606089,1.371
1776408533976297948,1.2630000000000001
1776408533983989807,-0.28400000000000003
1776408533991681666,-1.732
1776408533999373525,-1.442
1776408534007065384,-0.544
1776408534014757243,-0.255
1776408534022449102,-0.019
1776408534030140961,0.269
1776408534037832820,0.245
1776408534045524679,0.191
1776408534053216538,0.274
1776408534060908397,0.28700000000000003
1776408534068600256,0.257
1776408534076292115,0.279
1776408534083983974,0.294
1776408534091675833,0.28700000000000003
1776408534099367692,0.291
1776408534107059551,0.299
1776408534114751410,0.306
1776408534122443269,0.338
1776408534130135128,0.35000000000000003
1776408534137826987,0.341
1776408534145518846,0.35000000000000003
1776408534153210705,0.372
1776408534160902564,0.385
1776408534168594484,0.39
1776408534176286552,0.387
1776408534183978620,0.385
1776408534191670688,0.39
1776408534199362756,0.387
1776408534207054824,0.372
1776408534214746892,0.338
1776408534222438960,0.289
1776408534230131028,0.247
1776408534237823096,0.193
1776408534245515164,0.14400000000000002
1776408534253207232,0.115
1776408534260899300,0.085
1776408534268591368,0.051000000000000004
1776408534276283436,0.019
1776408534283975504,-0.004
1776408534291667572,-0.007
1776408534299359640,-0.019
1776408534307051708,-0.046
1776408534314743776,-0.022
1776408534322435844,0.012
1776408534330127912,-0.002
1776408534337819980,-0.002
1776408534345512048,0.019
1776408534353204116,0.019
1776408534360896184,0.019
1776408534368588252,0.034
1776408534376280320,0.036000000000000004
1776408534383972388,0.034
1776408534391664456,0.049
1776408534399356524,0.051000000000000004
1776408534407048592,0.031
1776408534414740660,0.034
1776408534422432728,0.049
1776408534430124796,0.039
1776408534437816864,0.022
1776408534445508932,0.017
1776408534453201000,0.017
1776408534460893068,0.029
1776408534468585136,0.029
1776408534476277204,0.017
1776408534483969272,0.014
1776408534491661340,0.009000000000000001
1776408534499353408,0.002
1776408534507045476,0.007
1776408534514737544,0.002
1776408534522429612,-0.004
1776408534530121680,0.0
1776408534537813748,0.009000000000000001
1776408534545505816,0.017
1776408534553197884,0.019
1776408534560889952,0.029
1776408534568582020,0.024
1776408534576274088,0.012
1776408534583966156,0.019
1776408534591658224,0.034
1776408534599350292,0.036000000000000004
1776408534607042360,0.036000000000000004
1776408534614734428,0.039
1776408534622426496,0.058
1776408534630118564,0.078
1776408534637810632,0.085
1776408534645502700,0.09
1776408534653194768,0.08
1776408534660886836,0.066
1776408534668578904,0.053
1776408534676270972,0.046
1776408534683963040,0.044,,818
1776408534691655108,0.041
1776408534699347176,0.041
1776408534707039244,0.044
1776408534714731312,0.041
1776408534722423380,0.068
1776408534730115512,0.25,75
1776408534737807302,0.785
1776408534745499092,1.428
1776408534753190882,1.055
1776408534760882672,-0.6890000000000001
1776408534768574462,-1.867
1776408534776266252,-1.305
1776408534783958042,-0.542
1776408534791649832,-0.343
1776408534799341622,-0.012
1776408534807033412,0.274
1776408534814725202,0.20600000000000002
1776408534822416992,0.17400000000000002
1776408534830108782,0.267
1776408534837800572,0.257
1776408534845492362,0.233
1776408534853184152,0.262
1776408534860875942,0.262
1776408534868567732,0.255
1776408534876259522,0.279
1776408534883951312,0.299
1776408534891643102,0.309
1776408534899334892,0.318
1776408534907026682,0.318
1776408534914718472,0.326
1776408534922410262,0.34500000000000003
1776408534930102052,0.355
1776408534937793842,0.365
1776408534945485632,0.382
1776408534953177422,0.399
1776408534960869212,0.402
1776408534968561002,0.387
1776408534976252792,0.36
1776408534983944582,0.323
1776408534991636372,0.299
1776408534999328162,0.274
1776408535007019952,0.225
1776408535014711742,0.171
1776408535022403532,0.132
1776408535030095322,0.095
1776408535037787112,0.066
1776408535045478902,0.041
1776408535053170692,0.002
1776408535060862482,-0.031
1776408535068554272,-0.014
1776408535076246062,0.017
1776408535083937852,-0.002
1776408535091629642,-0.009000000000000001
1776408535099321432,0.002
1776408535107013222,0.004
1776408535114705012,0.012
1776408535122396802,0.024
1776408535130088592,0.034
1776408535137780382,0.051000000000000004
1776408535145472172,0.051000000000000004
1776408535153163962,0.034
1776408535160855752,0.051000000000000004
1776408535168547542,0.08
1776408535176239332,0.061
1776408535183931122,0.044
1776408535191622912,0.07100000000000001
1776408535199314702,0.078
1776408535207006492,0.051000000000000004
1776408535214698282,0.039
1776408535222390072,0.031
1776408535230081862,0.017
1776408535237773652,0.012
1776408535245465442,0.017
1776408535253157232,0.029
1776408535260849022,0.024
1776408535268540812,0.022
1776408535276232602,0.034
1776408535283924392,0.044
1776408535291616194,0.036000000000000004
1776408535299307984,0.024
1776408535306999774,0.024
1776408535314691564,0.017
1776408535322383354,0.002
1776408535330075144,0.004
1776408535337766934,0.017
1776408535345458724,0.022
1776408535353150514,0.029
1776408535360842304,0.049
1776408535368534094,0.044
1776408535376225884,0.029
1776408535383917674,0.044
1776408535391609464,0.029
1776408535399301254,-0.014
1776408535406993044,-0.007
1776408535414684834,0.012
1776408535422376624,0.004,,743
1776408535430068414,0.007
1776408535437760204,0.024
1776408535445451994,0.029
1776408535453143784,0.152
1776408535460835574,0.662
1776408535468527364,1.383
1776408535476219154,1.2510000000000001
1776408535483910944,-0.387
1776408535491602734,-1.879
1776408535499294524,-1.545
1776408535506986314,-0.628
1776408535514678104,-0.353
1776408535522369894,-0.085
1776408535530061684,0.252
1776408535537753474,0.233
1776408535545445264,0.169
1776408535553137054,0.26
1776408535560828844,0.279
1776408535568520634,0.242
1776408535576212424,0.267
1776408535583904214,0.294
1776408535591596004,0.28700000000000003
1776408535599287794,0.289
1776408535606979584,0.304
1776408535614671374,0.306
1776408535622363164,0.296
1776408535630054954,0.309
1776408535637746744,0.35000000000000003
1776408535645438534,0.375
1776408535653130324,0.363
1776408535660822114,0.382
1776408535668513904,0.41200000000000003
1776408535676205694,0.404
1776408535683897484,0.392
1776408535691589274,0.40900000000000003
1776408535699281064,0.41200000000000003
1776408535706972854,0.37
1776408535714664644,0.333
1776408535722356434,0.316
1776408535730048224,0.267
1776408535737740014,0.20600000000000002
1776408535745431804,0.161
1776408535753123594,0.117
1776408535760815384,0.076
1776408535768507174,0.061
1776408535776198964,0.039
1776408535783890754,-0.007
1776408535791582544,-0.041
1776408535799274334,-0.014
1776408535806966124,0.024
1776408535814657914,0.0
1776408535822349704,-0.024
1776408535830041494,-0.004
1776408535837733284,0.002
1776408535845425074,0.002
1776408535853116876,0.007,75
1776408535860808666,0.019
1776408535868500456,0.044
1776408535876192246,0.053
1776408535883884036,0.041
1776408535891575826,0.044
1776408535899267616,0.053
1776408535906959406,0.046
1776408535914651196,0.044
1776408535922342986,0.053
1776408535930034776,0.044
1776408535937726566,0.022
1776408535945418356,0.019
1776408535953110146,0.024
1776408535960801936,0.007
1776408535968493726,-0.004
1776408535976185516,0.009000000000000001
1776408535983877306,0.022
1776408535991569096,0.019
1776408535999260886,0.029
1776408536006952676,0.034
1776408536014644466,0.024
1776408536022336256,0.022
1776408536030028046,0.024
1776408536037719836,0.034
1776408536045411626,0.039
1776408536053103416,0.022
1776408536060795206,0.009000000000000001
1776408536068486996,0.031
1776408536076178786,0.056
1776408536083870576,0.051000000000000004
1776408536091562366,0.044
1776408536099254156,0.056
1776408536106945946,0.073
1776408536114637736,0.083
1776408536122329526,0.09
1776408536130021316,0.093
1776408536137713106,0.08
1776408536145404896,0.056
1776408536153096686,0.046
1776408536160788476,0.058
1776408536168480266,0.061
1776408536176172056,0.046
1776408536183863846,0.044
1776408536191555636,0.061,,768
1776408536199247426,0.066
1776408536206939216,0.083
1776408536214631006,0.318
1776408536222322796,0.986
1776408536230014586,1.55
1776408536237706376,0.812
1776408536245398166,-1.047
1776408536253089956,-1.8860000000000001
1776408536260781746,-1.074
1776408536268473536,-0.368
1776408536276165326,-0.198
1776408536283857116,0.127
1776408536291548906,0.309
1776408536299240696,0.20800000000000002
1776408536306932486,0.225
1776408536314624276,0.296
1776408536322316066,0.257
1776408536330007856,0.257
1776408536337699646,0.294
1776408536345391436,0.272
1776408536353083226,0.274
1776408536360775016,0.321
1776408536368466806,0.323
1776408536376158596,0.311
1776408536383850386,0.331
1776408536391542176,0.34500000000000003
1776408536399233966,0.34800000000000003
1776408536406925756,0.37
1776408536414617558,0.387,76
1776408536422309348,0.387
1776408536430001138,0.395
1776408536437692928,0.40900000000000003
1776408536445384718,0.41400000000000003
1776408536453076508,0.402
1776408536460768298,0.39
1776408536468460088,0.355
1776408536476151878,0.306
1776408536483843668,0.289
1776408536491535458,0.269
1776408536499227248,0.213
1776408536506919038,0.166
1776408536514610828,0.127
1776408536522302618,0.076
1776408536529994408,0.036000000000000004
1776408536537686198,0.022
1776408536545377988,0.017
1776408536553069778,0.014
1776408536560761568,0.007
1776408536568453358,-0.002
1776408536576145148,0.009000000000000001
1776408536583836938,0.029
1776408536591528728,0.034
1776408536599220518,0.031
1776408536606912308,0.039
1776408536614604098,0.046
1776408536622295888,0.051000000000000004
1776408536629987678,0.058
1776408536637679468,0.066
1776408536645371258,0.07100000000000001
1776408536653063048,0.076
1776408536660754838,0.073
1776408536668446628,0.056
1776408536676138418,0.056
1776408536683830208,0.085
1776408536691521998,0.073
1776408536699213788,0.049
1776408536706905578,0.066
1776408536714597368,0.076
1776408536722289158,0.046
1776408536729980948,0.026000000000000002
1776408536737672738,0.041
1776408536745364528,0.049
1776408536753056318,0.019
1776408536760748108,0.017
1776408536768439898,0.068
1776408536776131688,0.07100000000000001
1776408536783823478,0.031
1776408536791515268,0.046
1776408536799207058,0.073
1776408536806898848,0.058
1776408536814590638,0.039
1776408536822282428,0.041
1776408536829974218,0.034
1776408536837666008,0.024
1776408536845357798,0.026000000000000002
1776408536853049588,0.034
1776408536860741378,0.026000000000000002
1776408536868433168,0.022
1776408536876124958,0.039
1776408536883816748,0.051000000000000004
1776408536891508538,0.049
1776408536899200328,0.051000000000000004
1776408536906892118,0.049
1776408536914583908,0.041
1776408536922275698,0.041
1776408536929967488,0.066
1776408536937659278,0.088
1776408536945351068,0.09
1776408536953042858,0.088
1776408536960734648,0.088
1776408536968426438,0.066,,775
1776408536976118240,0.039
1776408536983810030,0.044
1776408536991501820,0.058
1776408536999193610,0.051000000000000004
1776408537006885400,0.049
1776408537014577190,0.056
1776408537022268980,0.058
1776408537029960770,0.061
1776408537037652560,0.09
1776408537045344350,0.306
1776408537053036140,0.895
1776408537060727930,1.447
1776408537068419720,0.841
1776408537076111510,-0.915
1776408537083803300,-1.815
1776408537091495090,-1.118
1776408537099186880,-0.436
1776408537106878670,-0.257
1776408537114570460,0.063
1776408537122262250,0.28700000000000003
1776408537129954040,0.211
1776408537137645830,0.203
1776408537145337620,0.28400000000000003
1776408537153029410,0.277
1776408537160721200,0.262
1776408537168412990,0.28700000000000003
1776408537176104780,0.28700000000000003
1776408537183796570,0.28400000000000003
1776408537191488360,0.299
1776408537199180150,0.294
1776408537206871940,0.28400000000000003
1776408537214563730,0.304
1776408537222255520,0.333
1776408537229947310,0.338
1776408537237639100,0.343
1776408537245330890,0.358
1776408537253022680,0.37
1776408537260714470,0.37
1776408537268406260,0.372
1776408537276098050,0.38
1776408537283789840,0.375
1776408537291481630,0.36
1776408537299173420,0.34800000000000003
1776408537306865210,0.309
1776408537314557000,0.26
1776408537322248790,0.223
1776408537329940580,0.176
1776408537337632370,0.112
1776408537345324160,0.066
1776408537353015950,0.044
1776408537360707740,0.024
1776408537368399530,0.002
1776408537376091320,-0.022
1776408537383783110,-0.034
1776408537391474900,-0.019
1776408537399166690,-0.004
1776408537406858480,-0.012
1776408537414550270,-0.019
1776408537422242060,-0.007
1776408537429933850,0.014
1776408537437625640,0.022
1776408537445317430,0.014
1776408537453009220,0.019
1776408537460701010,0.034
1776408537468392800,0.034
1776408537476084590,0.034
1776408537483776380,0.056
1776408537491468170,0.061
1776408537499159960,0.034
1776408537506851750,0.014
1776408537514543540,0.024
1776408537522235330,0.041
1776408537529927120,0.039
1776408537537618922,0.024,76
1776408537545310712,0.014
1776408537553002502,0.017
1776408537560694292,0.024
1776408537568386082,0.022
1776408537576077872,0.017
1776408537583769662,0.007
1776408537591461452,-0.012
1776408537599153242,-0.022
1776408537606845032,-0.019
1776408537614536822,-0.019
1776408537622228612,-0.022
1776408537629920402,-0.017
1776408537637612192,-0.012
1776408537645303982,-0.002
1776408537652995772,0.009000000000000001
1776408537660687562,0.007
1776408537668379352,0.007
1776408537676071142,0.014
1776408537683762932,0.014
1776408537691454722,0.002
1776408537699146512,0.009000000000000001
1776408537706838302,0.034
1776408537714530092,0.051000000000000004
1776408537722221882,0.058
1776408537729913672,0.061
1776408537737605462,0.046
1776408537745297252,0.029,,775
1776408537752989042,0.019
1776408537760680832,0.012
1776408537768372622,0.012
1776408537776064412,0.017
1776408537783756202,0.026000000000000002
1776408537791447992,0.039
1776408537799139782,0.039
1776408537806831572,0.034
1776408537814523362,0.152
1776408537822215152,0.618
1776408537829906942,1.342
1776408537837598732,1.327
1776408537845290522,-0.233
1776408537852982312,-1.82
1776408537860674102,-1.612
1776408537868365892,-0.682
1776408537876057682,-0.38
1776408537883749472,-0.13
1776408537891441262,0.245
1776408537899133052,0.26
1776408537906824842,0.171
1776408537914516632,0.247
1776408537922208422,0.277
1776408537929900212,0.23
1776408537937592002,0.245
1776408537945283792,0.272
1776408537952975582,0.264
1776408537960667372,0.274
1776408537968359162,0.294
1776408537976050952,0.289
1776408537983742742,0.289
1776408537991434532,0.309
1776408537999126322,0.323
1776408538006818112,0.331
1776408538014509902,0.343
1776408538022201692,0.365
1776408538029893482,0.38
1776408538037585272,0.38
1776408538045277062,0.39
1776408538052968852,0.392
1776408538060660642,0.37
1776408538068352432,0.35000000000000003
1776408538076044222,0.326
1776408538083736012,0.28400000000000003
1776408538091427802,0.245
1776408538099119604,0.198
1776408538106811394,0.14200000000000002
1776408538114503184,0.10300000000000001
1776408538122194974,0.073
1776408538129886764,0.036000000000000004
1776408538137578554,0.004
1776408538145270344,-0.009000000000000001
1776408538152962134,-0.012
1776408538160653924,-0.019
1776408538168345714,-0.024
1776408538176037504,-0.022
1776408538183729294,-0.014
1776408538191421084,-0.014
1776408538199112874,-0.017
1776408538206804664,-0.002
1776408538214496454,0.014
1776408538222188244,0.019
1776408538229880034,0.029
1776408538237571824,0.044
1776408538245263614,0.044
1776408538252955404,0.044
1776408538260647194,0.041
1776408538268338984,0.036000000000000004
1776408538276030774,0.036000000000000004
1776408538283722564,0.031
1776408538291414354,0.019
1776408538299106144,0.022
1776408538306797934,0.036000000000000004
1776408538314489724,0.034
1776408538322181514,0.019
1776408538329873304,0.009000000000000001
1776408538337565094,0.009000000000000001
1776408538345256884,0.002
1776408538352948674,-0.009000000000000001
1776408538360640464,-0.012
1776408538368332254,-0.019
1776408538376024044,-0.024
1776408538383715834,-0.004
1776408538391407624,0.004
1776408538399099414,-0.002
1776408538406791204,-0.002
1776408538414482994,0.007
1776408538422174784,0.002
1776408538429866574,-0.004
1776408538437558364,0.0
1776408538445250154,0.009000000000000001
1776408538452941944,0.014
1776408538460633734,0.026000000000000002
1776408538468325524,0.034,,725
1776408538476017314,0.026000000000000002
1776408538483709104,0.019
1776408538491400894,0.036000000000000004
1776408538499092684,0.063
1776408538506784474,0.073
1776408538514476264,0.073
1776408538522168054,0.076
1776408538529859844,0.078
1776408538537551634,0.068
1776408538545243424,0.049
1776408538552935214,0.026000000000000002
1776408538560627004,0.026000000000000002
1776408538568318794,0.051000000000000004
1776408538576010584,0.061
1776408538583702374,0.051000000000000004
1776408538591394164,0.053
1776408538599085954,0.056
1776408538606777744,0.132
1776408538614469534,0.537
1776408538622161324,1.288
1776408538629853114,1.486
1776408538637544904,0.149
1776408538645236694,-1.604
1776408538652928484,-1.719
1776408538660620286,-0.745,76
1776408538668312076,-0.299
1776408538676003866,-0.105
1776408538683695656,0.225
1776408538691387446,0.274
1776408538699079236,0.188
1776408538706771026,0.255
1776408538714462816,0.28400000000000003
1776408538722154606,0.242
1776408538729846396,0.255
1776408538737538186,0.28200000000000003
1776408538745229976,0.279
1776408538752921766,0.28200000000000003
1776408538760613556,0.28200000000000003
1776408538768305346,0.28400000000000003
1776408538775997136,0.311
1776408538783688926,0.328
1776408538791380716,0.321
1776408538799072506,0.333
1776408538806764296,0.368
1776408538814456086,0.377
1776408538822147876,0.375
1776408538829839666,0.387
1776408538837531456,0.392
1776408538845223246,0.385
1776408538852915036,0.368
1776408538860606826,0.338
1776408538868298616,0.306
1776408538875990406,0.28700000000000003
1776408538883682196,0.262
1776408538891373986,0.213
1776408538899065776,0.17400000000000002
1776408538906757566,0.147
1776408538914449356,0.095
1776408538922141146,0.044
1776408538929832936,0.019
1776408538937524726,0.004
1776408538945216516,-0.009000000000000001
1776408538952908306,-0.031
1776408538960600096,-0.046
1776408538968291886,-0.019
1776408538975983676,0.014
1776408538983675466,0.009000000000000001
1776408538991367256,0.009000000000000001
1776408538999059046,0.022
1776408539006750836,0.022
1776408539014442626,0.022
1776408539022134416,0.029
1776408539029826206,0.031
1776408539037517996,0.051000000000000004
1776408539045209786,0.066
1776408539052901576,0.049
1776408539060593366,0.036000000000000004
1776408539068285156,0.049
1776408539075976946,0.049
1776408539083668736,0.034
1776408539091360526,0.041
1776408539099052316,0.044
1776408539106744106,0.017
1776408539114435896,0.012
1776408539122127686,0.034
1776408539129819476,0.036000000000000004
1776408539137511266,0.017
1776408539145203056,0.019
1776408539152894846,0.026000000000000002
1776408539160586636,0.017
1776408539168278426,0.004
1776408539175970216,0.002
1776408539183662006,0.017
1776408539191353796,0.039
1776408539199045586,0.036000000000000004
1776408539206737376,0.026000000000000002
1776408539214429166,0.031
1776408539222120968,0.034,,759
1776408539229812758,0.031
1776408539237504548,0.031
1776408539245196338,0.044
1776408539252888128,0.053
1776408539260579918,0.051000000000000004
1776408539268271708,0.049
1776408539275963498,0.051000000000000004
1776408539283655288,0.063
1776408539291347078,0.056
1776408539299038868,0.031
1776408539306730658,0.039
1776408539314422448,0.063
1776408539322114238,0.063
1776408539329806028,0.061
1776408539337497818,0.07100000000000001
1776408539345189608,0.076
1776408539352881398,0.061
1776408539360573188,0.044
1776408539368264978,0.051000000000000004
1776408539375956768,0.073
1776408539383648558,0.09
1776408539391340348,0.10300000000000001
1776408539399032138,0.112
1776408539406723928,0.095
1776408539414415718,0.056
1776408539422107508,0.049
1776408539429799298,0.066
1776408539437491088,0.056
1776408539445182878,0.036000000000000004
1776408539452874668,0.041
1776408539460566458,0.051000000000000004
1776408539468258248,0.07100000000000001
1776408539475950038,0.083
1776408539483641828,0.117
1776408539491333618,0.40900000000000003
1776408539499025408,1.099
1776408539506717198,1.499
1776408539514408988,0.527
1776408539522100778,-1.234
1776408539529792568,-1.734
1776408539537484358,-0.885
1776408539545176148,-0.336
1776408539552867938,-0.161
1776408539560559728,0.169
1776408539568251518,0.28700000000000003
1776408539575943308,0.193
1776408539583635098,0.24
1776408539591326888,0.301
1776408539599018678,0.267
1776408539606710468,0.26
1776408539614402258,0.28200000000000003
1776408539622094048,0.279
1776408539629785838,0.28200000000000003
1776408539637477628,0.299
1776408539645169418,0.314
1776408539652861208,0.316
1776408539660552998,0.311
1776408539668244788,0.316
1776408539675936578,0.321
1776408539683628368,0.331
1776408539691320158,0.34500000000000003
1776408539699011948,0.353
1776408539706703738,0.37
1776408539714395528,0.385
1776408539722087318,0.375
1776408539729779108,0.363
1776408539737470898,0.355
1776408539745162688,0.341
1776408539752854478,0.299
1776408539760546268,0.245
1776408539768238058,0.203
1776408539775929848,0.169
1776408539783621650,0.12,77
1776408539791313440,0.08
1776408539799005230,0.073
1776408539806697020,0.056
1776408539814388810,0.014
1776408539822080600,-0.002
1776408539829772390,-0.002
1776408539837464180,-0.012
1776408539845155970,-0.024
1776408539852847760,-0.024
1776408539860539550,-0.026000000000000002
1776408539868231340,-0.034
1776408539875923130,-0.029
1776408539883614920,-0.019
1776408539891306710,-0.022
1776408539898998500,-0.022
1776408539906690290,-0.017
1776408539914382080,-0.007
1776408539922073870,0.002
1776408539929765660,0.004
1776408539937457450,0.004
1776408539945149240,0.007
1776408539952841030,0.009000000000000001
1776408539960532820,0.012
1776408539968224610,0.019
1776408539975916400,0.019
1776408539983608190,0.007
1776408539991299980,0.002
1776408539998991770,0.002
1776408540006683560,0.004
1776408540014375350,0.012
1776408540022067140,0.012
1776408540029758930,0.014
1776408540037450720,0.012
1776408540045142510,0.007
1776408540052834300,0.009000000000000001
1776408540060526090,0.024,,831
1776408540068217880,0.034
1776408540075909670,0.024
1776408540083601460,0.012
1776408540091293250,0.026000000000000002
1776408540098985040,0.051000000000000004
1776408540106676830,0.049
1776408540114368620,0.039
1776408540122060410,0.044
1776408540129752200,0.051000000000000004
1776408540137443990,0.056
1776408540145135780,0.056
1776408540152827570,0.051000000000000004
1776408540160519360,0.058
1776408540168211150,0.061
1776408540175902940,0.053
1776408540183594730,0.061
1776408540191286520,0.073
1776408540198978310,0.076
1776408540206670100,0.085
1776408540214361890,0.107
1776408540222053680,0.117
1776408540229745470,0.11
1776408540237437260,0.10300000000000001
1776408540245129050,0.098
1776408540252820840,0.083
1776408540260512630,0.07100000000000001
1776408540268204420,0.07100000000000001
1776408540275896210,0.073
1776408540283588000,0.063
1776408540291279790,0.066
1776408540298971580,0.08
1776408540306663370,0.088
1776408540314355160,0.13
1776408540322046950,0.417
1776408540329738740,1.089
1776408540337430530,1.516
1776408540345122332,0.547,76
1776408540352814122,-1.266
1776408540360505912,-1.7690000000000001
1776408540368197702,-0.927
1776408540375889492,-0.41400000000000003
1776408540383581282,-0.228
1776408540391273072,0.154
1776408540398964862,0.304
1776408540406656652,0.201
1776408540414348442,0.23
1776408540422040232,0.301
1776408540429732022,0.28200000000000003
1776408540437423812,0.28200000000000003
1776408540445115602,0.304
1776408540452807392,0.291
1776408540460499182,0.28400000000000003
1776408540468190972,0.291
1776408540475882762,0.299
1776408540483574552,0.314
1776408540491266342,0.328
1776408540498958132,0.328
1776408540506649922,0.34500000000000003
1776408540514341712,0.365
1776408540522033502,0.36
1776408540529725292,0.368
1776408540537417082,0.385
1776408540545108872,0.395
1776408540552800662,0.399
1776408540560492452,0.402
1776408540568184242,0.385
1776408540575876032,0.35000000000000003
1776408540583567822,0.296
1776408540591259612,0.25
1776408540598951402,0.213
1776408540606643192,0.171
1776408540614334982,0.125
1776408540622026772,0.083
1776408540629718562,0.044
1776408540637410352,0.017
1776408540645102142,0.002
1776408540652793932,-0.004
1776408540660485722,-0.004
1776408540668177512,-0.012
1776408540675869302,-0.019
1776408540683561092,-0.017
1776408540691252882,-0.014
1776408540698944672,-0.019
1776408540706636462,-0.012
1776408540714328252,0.004
1776408540722020042,0.017
1776408540729711832,0.007
1776408540737403622,0.012
1776408540745095412,0.041
1776408540752787202,0.056
1776408540760478992,0.041
1776408540768170782,0.031
1776408540775862572,0.039
1776408540783554362,0.039
1776408540791246152,0.034
1776408540798937942,0.041
1776408540806629732,0.031
1776408540814321522,0.012
1776408540822013312,0.024
1776408540829705102,0.053,,772
1776408540837396892,0.058
1776408540845088682,0.036000000000000004
1776408540852780472,0.026000000000000002
1776408540860472262,0.051000000000000004
1776408540868164052,0.073
1776408540875855842,0.026000000000000002
1776408540883547632,-0.031
1776408540891239422,-0.019
1776408540898931212,0.002
1776408540906623014,0.004
1776408540914314804,0.024
1776408540922006594,0.034
1776408540929698384,0.039
1776408540937390174,0.058
1776408540945081964,0.044
1776408540952773754,0.009000000000000001
1776408540960465544,0.031
1776408540968157334,0.053
1776408540975849124,0.039
1776408540983540914,0.058
1776408540991232704,0.098
1776408540998924494,0.073
1776408541006616284,0.044
1776408541014308074,0.083
1776408541021999864,0.11
1776408541029691654,0.066
1776408541037383444,0.061
1776408541045075234,0.09
1776408541052767024,0.046
1776408541060458814,0.026000000000000002
1776408541068150604,0.044
1776408541075842394,0.012
1776408541083534184,0.019
1776408541091225974,0.07100000000000001
1776408541098917764,0.053
1776408541106609554,0.161
1776408541114301344,0.704
1776408541121993134,1.42
1776408541129684924,1.285
1776408541137376714,-0.326
1776408541145068504,-1.82
1776408541152760294,-1.528
1776408541160452084,-0.608
1776408541168143874,-0.311
1776408541175835664,-0.083
1776408541183527454,0.257
1776408541191219244,0.267
1776408541198911034,0.139
1776408541206602824,0.215
1776408541214294614,0.333
1776408541221986404,0.296
1776408541229678194,0.245
1776408541237369984,0.291
1776408541245061774,0.316
1776408541252753564,0.306
1776408541260445354,0.318
1776408541268137144,0.326
1776408541275828934,0.331
1776408541283520724,0.341
1776408541291212514,0.331
1776408541298904304,0.318
1776408541306596094,0.34800000000000003
1776408541314287884,0.377
1776408541321979674,0.37
1776408541329671464,0.382
1776408541337363254,0.404
1776408541345055044,0.397
1776408541352746834,0.387
1776408541360438624,0.365
1776408541368130414,0.311
1776408541375822204,0.272
1776408541383513994,0.23800000000000002
1776408541391205784,0.166
1776408541398897574,0.105
1776408541406589364,0.076
1776408541414281154,0.044
1776408541421972944,0.022
1776408541429664734,0.007
1776408541437356524,-0.014
1776408541445048314,-0.034
1776408541452740104,-0.056
1776408541460431894,-0.078
1776408541468123696,-0.046,76
1776408541475815486,0.0
1776408541483507276,-0.017
1776408541491199066,-0.041
1776408541498890856,-0.007
1776408541506582646,0.014
1776408541514274436,-0.022
1776408541521966226,-0.026000000000000002
1776408541529658016,0.014
1776408541537349806,0.004
1776408541545041596,-0.014
1776408541552733386,0.026000000000000002
1776408541560425176,0.022
1776408541568116966,-0.017
1776408541575808756,0.031
1776408541583500546,0.046
1776408541591192336,-0.024
1776408541598884126,-0.019
1776408541606575916,0.022
1776408541614267706,-0.031
1776408541621959496,-0.066,,794
1776408541629651286,-0.014
1776408541637343076,-0.012
1776408541645034866,-0.053
1776408541652726656,-0.058
1776408541660418446,-0.041
1776408541668110236,-0.017
1776408541675802026,-0.012
1776408541683493816,-0.051000000000000004
1776408541691185606,-0.068
1776408541698877396,-0.031
1776408541706569186,-0.014
1776408541714260976,-0.012
1776408541721952766,0.002
1776408541729644556,-0.007
1776408541737336346,-0.046
1776408541745028136,-0.049
1776408541752719926,0.004
1776408541760411716,0.014
1776408541768103506,-0.009000000000000001
1776408541775795296,0.014
1776408541783487086,0.007
1776408541791178876,-0.017
1776408541798870666,0.031
1776408541806562456,0.083
1776408541814254246,0.07100000000000001
1776408541821946036,0.034
1776408541829637826,0.029
1776408541837329616,0.041
1776408541845021406,0.034
1776408541852713196,0.017
1776408541860404986,0.026000000000000002
1776408541868096776,0.046
1776408541875788566,0.019
1776408541883480356,0.0
1776408541891172146,0.056
1776408541898863936,0.161
1776408541906555726,0.544
1776408541914247516,1.28
1776408541921939306,1.344
1776408541929631096,-0.147
1776408541937322886,-1.729
1776408541945014676,-1.609
1776408541952706466,-0.743
1776408541960398256,-0.40700000000000003
1776408541968090046,-0.122
1776408541975781836,0.242
1776408541983473626,0.25
1776408541991165416,0.14400000000000002
1776408541998857206,0.233
1776408542006548996,0.316
1776408542014240786,0.267
1776408542021932576,0.23500000000000001
1776408542029624378,0.277
1776408542037316516,0.267
1776408542045008654,0.267
1776408542052700792,0.336
1776408542060392930,0.336
1776408542068085068,0.304
1776408542075777206,0.316
1776408542083469344,0.306
1776408542091161482,0.306
1776408542098853620,0.338
1776408542106545758,0.34800000000000003
1776408542114237896,0.338
1776408542121930034,0.355
1776408542129622172,0.404
1776408542137314310,0.385
1776408542145006448,0.318
1776408542152698586,0.358
1776408542160390724,0.36
1776408542168082862,0.225
1776408542175775000,0.169
1776408542183467138,0.176
1776408542191159276,0.115
1776408542198851414,0.083
1776408542206543552,0.066
1776408542214235690,-0.004
1776408542221927828,-0.034
1776408542229619966,0.019
1776408542237312104,0.022
1776408542245004242,-0.051000000000000004
1776408542252696380,-0.058
1776408542260388518,-0.026000000000000002
1776408542268080656,-0.041
1776408542275772794,-0.066
1776408542283464932,-0.068
1776408542291157070,-0.019
1776408542298849208,0.026000000000000002
1776408542306541346,-0.009000000000000001
1776408542314233484,-0.029
1776408542321925622,0.036000000000000004
1776408542329617760,0.085
1776408542337309898,0.031
1776408542345002036,-0.058
1776408542352694174,-0.024
1776408542360386312,0.076
1776408542368078450,0.029
1776408542375770588,-0.029
1776408542383462726,0.012
1776408542391154864,0.014
1776408542398847002,-0.007
1776408542406539140,-0.012
1776408542414231278,-0.022
1776408542421923416,0.002
1776408542429615554,0.024
1776408542437307692,-0.024
1776408542444999830,-0.053
1776408542452691968,0.002
1776408542460384106,-0.004
1776408542468076244,-0.061
1776408542475768382,0.002
1776408542483460520,0.041
1776408542491152658,-0.002
1776408542498844796,0.014,,879
1776408542506536934,0.058
1776408542514229072,0.041
1776408542521921210,-0.017
1776408542529613348,0.0
1776408542537305486,0.09
1776408542544997624,0.076
1776408542552689762,0.024
1776408542560381900,0.063
1776408542568074038,0.08
1776408542575766176,0.049
1776408542583458314,0.036000000000000004
1776408542591150490,0.014,76
1776408542598841931,0.014
1776408542606533372,0.022
1776408542614224813,-0.012
1776408542621916254,-0.002
1776408542629607695,0.039
1776408542637299136,0.157
1776408542644990577,0.5660000000000001
1776408542652682018,1.248
1776408542660373459,1.391
1776408542668064900,0.002
1776408542675756341,-1.742
1776408542683447782,-1.776
1776408542691139223,-0.853
1776408542698830664,-0.461
1776408542706522105,-0.179
1776408542714213546,0.176
1776408542721904987,0.252
1776408542729596428,0.247
1776408542737287869,0.252
1776408542744979310,0.23
1776408542752670751,0.25
1776408542760362192,0.255
1776408542768053633,0.269
1776408542775745074,0.301
1776408542783436515,0.289
1776408542791127956,0.301
1776408542798819397,0.333
1776408542806510838,0.321
1776408542814202279,0.314
1776408542821893720,0.321
1776408542829585161,0.343
1776408542837276602,0.375
1776408542844968043,0.39
1776408542852659484,0.40700000000000003
1776408542860350925,0.40900000000000003
1776408542868042366,0.404
1776408542875733807,0.431
1776408542883425248,0.419
1776408542891116689,0.34800000000000003
1776408542898808130,0.341
1776408542906499571,0.318
1776408542914191012,0.211
1776408542921882453,0.161
1776408542929573894,0.171
1776408542937265335,0.117
1776408542944956776,0.051000000000000004
1776408542952648217,0.019
1776408542960339658,-0.012
1776408542968031099,-0.019
1776408542975722540,-0.022
1776408542983413981,-0.041
1776408542991105422,-0.012
1776408542998796863,0.0
1776408543006488304,-0.034
1776408543014179745,-0.022
1776408543021871186,-0.004
1776408543029562627,-0.009000000000000001
1776408543037254068,0.002
1776408543044945509,0.009000000000000001
1776408543052636950,0.007
1776408543060328391,0.014
1776408543068019832,0.036000000000000004
1776408543075711273,0.031
1776408543083402714,0.029
1776408543091094155,0.046
1776408543098785596,0.039
1776408543106477037,0.017
1776408543114168478,-0.002
1776408543121859919,0.0
1776408543129551360,0.014
1776408543137242801,0.004
1776408543144934242,-0.014
1776408543152625742,-0.009000000000000001
1776408543160317601,0.002
1776408543168009460,0.002
1776408543175701319,0.0
1776408543183393178,0.004
1776408543191085037,-0.007
1776408543198776896,-0.012
1776408543206468755,0.019
1776408543214160614,0.026000000000000002
1776408543221852473,-0.004
1776408543229544332,0.0
1776408543237236191,0.024
1776408543244928050,0.022
1776408543252619909,0.031
1776408543260311768,0.061
1776408543268003627,0.061
1776408543275695486,0.041
1776408543283387345,0.036000000000000004
1776408543291079204,0.022
1776408543298771063,-0.007
1776408543306462922,-0.009000000000000001
1776408543314154781,0.009000000000000001
1776408543321846640,0.019
1776408543329538499,0.017,,831
1776408543337230358,0.017
1776408543344922217,0.017
1776408543352614076,0.122
1776408543360305935,0.588
1776408543367997794,1.334
1776408543375689653,1.354
1776408543383381512,-0.176
1776408543391073371,-1.805
1776408543398765230,-1.685
1776408543406457089,-0.763
1776408543414148948,-0.402
1776408543421840807,-0.14400000000000002
1776408543429532666,0.201
1776408543437224525,0.218
1776408543444916384,0.134
1776408543452608243,0.245
1776408543460300102,0.289
1776408543467991961,0.196
1776408543475683820,0.20800000000000002
1776408543483375679,0.272
1776408543491067538,0.252
1776408543498759397,0.23
1776408543506451256,0.255
1776408543514143115,0.277
1776408543521834974,0.274
1776408543529526833,0.264
1776408543537218692,0.25
1776408543544910551,0.23800000000000002
1776408543552602410,0.269
1776408543560294269,0.299
1776408543567986128,0.294
1776408543575677987,0.291
1776408543583369846,0.267
1776408543591061705,0.242
1776408543598753564,0.26
1776408543606445423,0.228
1776408543614137282,0.196
1776408543621829141,0.233
1776408543629521000,0.164
1776408543637212859,0.07100000000000001
1776408543644904718,0.112
1776408543652596577,0.093
1776408543660288436,0.002
1776408543667980295,0.007
1776408543675672154,0.014
1776408543683364013,-0.031
1776408543691055872,-0.014
1776408543698747731,0.026000000000000002
1776408543706439590,0.002
1776408543714131510,-0.004,75
1776408543721823369,0.034
1776408543729515228,0.024
1776408543737207087,0.014
1776408543744898946,0.061
1776408543752590805,0.066
1776408543760282664,0.056
1776408543767974523,0.085
1776408543775666382,0.07100000000000001
1776408543783358241,0.049
1776408543791050100,0.078
1776408543798741959,0.093
1776408543806433818,0.08
1776408543814125677,0.08
1776408543821817536,0.066
1776408543829509395,0.051000000000000004
1776408543837201254,0.066
1776408543844893113,0.056
1776408543852584972,0.019
1776408543860276831,0.049
1776408543867968690,0.098
1776408543875660549,0.066
1776408543883352408,0.024
1776408543891044267,0.034
1776408543898736126,0.039
1776408543906427985,0.031
1776408543914119844,0.041
1776408543921811703,0.041
1776408543929503562,0.051000000000000004
1776408543937195421,0.041
1776408543944887280,0.029
1776408543952579139,0.08
1776408543960270998,0.085
1776408543967962857,0.051000000000000004
1776408543975654716,0.056
1776408543983346575,0.039
1776408543991038434,0.029
1776408543998730293,0.046
1776408544006422152,0.039
1776408544014114011,0.024
1776408544021805870,0.024
1776408544029497729,0.031
1776408544037189588,0.066
1776408544044881447,0.093
1776408544052573306,0.09
1776408544060265165,0.309
1776408544067957024,0.922
1776408544075648883,1.428
1776408544083340742,0.753
1776408544091032601,-0.9440000000000001
1776408544098724460,-1.668
1776408544106416319,-0.937
1776408544114108178,-0.36
1776408544121800037,-0.211,,789
1776408544129491896,0.098
1776408544137183755,0.257
1776408544144875614,0.154
1776408544152567473,0.149
1776408544160259332,0.23500000000000001
1776408544167951191,0.245
1776408544175643050,0.228
1776408544183334909,0.24
1776408544191026768,0.23800000000000002
1776408544198718627,0.24
1776408544206410486,0.279
1776408544214102345,0.28700000000000003
1776408544221794204,0.28400000000000003
1776408544229486063,0.314
1776408544237177922,0.328
1776408544244869781,0.336
1776408544252561640,0.355
1776408544260253499,0.365
1776408544267945358,0.36
1776408544275637278,0.368
1776408544283329137,0.392
1776408544291020996,0.397
1776408544298712855,0.372
1776408544306404714,0.355
1776408544314096573,0.338
1776408544321788432,0.304
1776408544329480291,0.255
1776408544337172150,0.218
1776408544344864009,0.181
1776408544352555868,0.134
1776408544360247727,0.10300000000000001
1776408544367939586,0.076
1776408544375631445,0.053
1776408544383323304,0.044
1776408544391015163,0.031
1776408544398707022,0.024
1776408544406398881,0.009000000000000001
1776408544414090740,0.019
1776408544421782599,0.034
1776408544429474458,0.009000000000000001
1776408544437166317,0.009000000000000001
1776408544444858176,0.049
1776408544452550035,0.051000000000000004
1776408544460241894,0.041
1776408544467933753,0.044
1776408544475625612,0.051000000000000004
1776408544483317471,0.088
1776408544491009330,0.115
1776408544498701189,0.08
1776408544506393048,0.066
1776408544514084907,0.076
1776408544521776766,0.066
1776408544529468625,0.068
1776408544537160484,0.068
1776408544544852343,0.073
1776408544552544202,0.105
1776408544560236061,0.088
1776408544567927920,0.031
1776408544575619779,0.041
1776408544583311638,0.083
1776408544591003497,0.073
1776408544598695356,0.061
1776408544606387215,0.078
1776408544614079074,0.083
1776408544621770933,0.07100000000000001
1776408544629462792,0.076
1776408544637154651,0.11
1776408544644846510,0.137
1776408544652538369,0.1
1776408544660230228,0.058
1776408544667922087,0.10300000000000001
1776408544675613946,0.139
1776408544683305805,0.083
1776408544690997664,0.031
1776408544698689523,0.046
1776408544706381382,0.078
1776408544714073241,0.08
1776408544721765100,0.078
1776408544729456959,0.09
1776408544737148818,0.076
1776408544744840677,0.12
1776408544752532536,0.429
1776408544760224395,1.025
1776408544767916254,1.312
1776408544775608113,0.28700000000000003
1776408544783299972,-1.383
1776408544790991831,-1.69
1776408544798683690,-0.858
1776408544806375549,-0.431
1776408544814067408,-0.218
1776408544821759267,0.154
1776408544829451126,0.223
1776408544837143046,0.127,75
1776408544844834905,0.213
1776408544852526764,0.255
1776408544860218623,0.196
1776408544867910482,0.225
1776408544875602341,0.257
1776408544883294200,0.20800000000000002
1776408544890986059,0.213
1776408544898677918,0.26
1776408544906369777,0.26
1776408544914061636,0.252,,793
1776408544921753495,0.25
1776408544929445354,0.23800000000000002
1776408544937137213,0.242
1776408544944829072,0.267
1776408544952520931,0.28400000000000003
1776408544960212790,0.301
1776408544967904649,0.333
1776408544975596508,0.34800000000000003
1776408544983288367,0.326
1776408544990980226,0.314
1776408544998672085,0.299
1776408545006363944,0.257
1776408545014055803,0.213
1776408545021747662,0.179
1776408545029439521,0.14400000000000002
1776408545037131380,0.112
1776408545044823239,0.063
1776408545052515098,0.009000000000000001
1776408545060206957,-0.022
1776408545067898816,-0.034
1776408545075590675,-0.036000000000000004
1776408545083282534,-0.046
1776408545090974393,-0.073
1776408545098666252,-0.085
1776408545106358111,-0.073
1776408545114049970,-0.061
1776408545121741829,-0.051000000000000004
1776408545129433688,-0.034
1776408545137125547,-0.017
1776408545144817406,-0.004
1776408545152509265,0.014
1776408545160201124,0.026000000000000002
1776408545167892983,0.024
1776408545175584842,0.024
1776408545183276701,0.026000000000000002
1776408545190968560,0.029
1776408545198660419,0.031
1776408545206352278,0.031
1776408545214044137,0.031
1776408545221735996,0.029
1776408545229427855,0.022
1776408545237119714,0.029
1776408545244811573,0.034
1776408545252503432,0.029
1776408545260195291,0.036000000000000004
1776408545267887150,0.049
1776408545275579009,0.041
1776408545283270868,0.039
1776408545290962727,0.061
1776408545298654586,0.073
1776408545306346445,0.07100000000000001
1776408545314038304,0.088
1776408545321730163,0.1
1776408545329422022,0.076
1776408545337113881,0.053
1776408545344805740,0.044
1776408545352497599,0.036000000000000004
1776408545360189458,0.046
1776408545367881317,0.051000000000000004
1776408545375573176,0.044
1776408545383265035,0.051000000000000004
1776408545390956894,0.058
1776408545398648814,0.076,76
1776408545406340673,0.28700000000000003
1776408545414032532,0.9
1776408545421724391,1.491
1776408545429416250,0.878
1776408545437108109,-0.966
1776408545444799968,-1.889
1776408545452491827,-1.123
1776408545460183686,-0.434
1776408545467875545,-0.277
1776408545475567404,0.076
1776408545483259263,0.301
1776408545490951122,0.181
1776408545498642981,0.169
1776408545506334840,0.269
1776408545514026699,0.257
1776408545521718558,0.23
1776408545529410417,0.252
1776408545537102276,0.269
1776408545544794135,0.291
1776408545552485994,0.299
1776408545560177853,0.277
1776408545567869712,0.277
1776408545575561571,0.299
1776408545583253430,0.299
1776408545590945289,0.299
1776408545598637148,0.323
1776408545606329007,0.338
1776408545614020866,0.34800000000000003
1776408545621712725,0.368
1776408545629404584,0.382
1776408545637096443,0.39
1776408545644788302,0.37
1776408545652480161,0.336,,739
1776408545660172020,0.323
1776408545667863879,0.294
1776408545675555738,0.245
1776408545683247597,0.218
1776408545690939456,0.193
1776408545698631315,0.14200000000000002
1776408545706323174,0.073
1776408545714015033,0.034
1776408545721706892,0.034
1776408545729398751,-0.017
1776408545737090610,-0.058
1776408545744782469,-0.007
1776408545752474328,0.002
1776408545760166187,-0.034
1776408545767858046,-0.002
1776408545775549905,0.039
1776408545783241764,0.024
1776408545790933623,0.017
1776408545798625482,0.041
1776408545806317341,0.046
1776408545814009200,0.046
1776408545821701059,0.08
1776408545829392918,0.095
1776408545837084777,0.07100000000000001
1776408545844776636,0.041
1776408545852468495,0.039
1776408545860160354,0.066
1776408545867852213,0.068
1776408545875544072,0.039
1776408545883235931,0.036000000000000004
1776408545890927790,0.049
1776408545898619649,0.041
1776408545906311508,0.066
1776408545914003367,0.09
1776408545921695226,0.066
1776408545929387085,0.046
1776408545937078944,0.049
1776408545944770803,0.041
1776408545952462662,0.034
1776408545960154582,0.061
1776408545967846441,0.07100000000000001
1776408545975538300,0.044
1776408545983230159,0.049
1776408545990922018,0.08
1776408545998613877,0.095
1776408546006305736,0.107
1776408546013997595,0.117
1776408546021689454,0.083
1776408546029381313,0.036000000000000004
1776408546037073172,0.029
1776408546044765031,0.029
1776408546052456890,0.031
1776408546060148749,0.044
1776408546067840608,0.036000000000000004
1776408546075532467,0.031
1776408546083224326,0.053
1776408546090916185,0.179
1776408546098608044,0.642
1776408546106299903,1.349
1776408546113991762,1.28
1776408546121683621,-0.296
1776408546129375480,-1.7910000000000001
1776408546137067339,-1.496
1776408546144759198,-0.583
1776408546152451057,-0.296
1776408546160142916,-0.036000000000000004
1776408546167834775,0.28200000000000003
1776408546175526634,0.247
1776408546183218493,0.181
1776408546190910352,0.267
1776408546198602211,0.272
1776408546206294070,0.23500000000000001
1776408546213985929,0.26
1776408546221677788,0.277
1776408546229369647,0.274
1776408546237061506,0.28700000000000003
1776408546244753365,0.299
1776408546252445224,0.301
1776408546260137083,0.304
1776408546267828942,0.309
1776408546275520801,0.323
1776408546283212660,0.35000000000000003
1776408546290904519,0.358
1776408546298596378,0.333
1776408546306288237,0.326
1776408546313980096,0.35000000000000003
1776408546321671955,0.375
1776408546329363814,0.365
1776408546337055673,0.338
1776408546344747532,0.321
1776408546352439391,0.304
1776408546360131250,0.267
1776408546367823109,0.218,,715
1776408546375514968,0.171
1776408546383206827,0.139
1776408546390898686,0.1
1776408546398590545,0.049
1776408546406282404,0.014
1776408546413974263,0.002
1776408546421666122,-0.014
1776408546429357981,-0.029
1776408546437049840,-0.029
1776408546444741699,-0.041
1776408546452433558,-0.053
1776408546460125417,-0.046
1776408546467817276,-0.031
1776408546475509135,-0.022
1776408546483200994,-0.017
1776408546490892853,-0.014
1776408546498584712,0.002
1776408546506276571,0.007
1776408546513968430,0.002
1776408546521660352,0.022,77
1776408546529352142,0.039
1776408546537043932,0.034
1776408546544735722,0.029
1776408546552427512,0.026000000000000002
1776408546560119302,0.012
1776408546567811092,0.002
1776408546575502882,0.0
1776408546583194672,0.0
1776408546590886462,-0.004
1776408546598578252,0.004
1776408546606270042,0.022
1776408546613961832,0.014
1776408546621653622,-0.002
1776408546629345412,0.012
1776408546637037202,0.026000000000000002
1776408546644728992,0.022
1776408546652420782,0.026000000000000002
1776408546660112572,0.034
1776408546667804362,0.034
1776408546675496152,0.034
1776408546683187942,0.044
1776408546690879732,0.063
1776408546698571522,0.078
1776408546706263312,0.083
1776408546713955102,0.078
1776408546721646892,0.078
1776408546729338682,0.07100000000000001
1776408546737030472,0.046
1776408546744722262,0.026000000000000002
1776408546752414052,0.031
1776408546760105842,0.039
1776408546767797632,0.036000000000000004
1776408546775489422,0.029
1776408546783181212,0.053
1776408546790873002,0.112
1776408546798564792,0.355
1776408546806256582,1.025
1776408546813948372,1.555
1776408546821640162,0.637
1776408546829331952,-1.278
1776408546837023742,-1.872
1776408546844715532,-0.991
1776408546852407322,-0.439
1776408546860099112,-0.272
1776408546867790902,0.122
1776408546875482692,0.306
1776408546883174482,0.211
1776408546890866272,0.233
1776408546898558062,0.28700000000000003
1776408546906249852,0.247
1776408546913941642,0.264
1776408546921633432,0.314
1776408546929325222,0.294
1776408546937017012,0.279
1776408546944708802,0.294
1776408546952400592,0.28200000000000003
1776408546960092382,0.272
1776408546967784172,0.28400000000000003
1776408546975475962,0.289
1776408546983167752,0.309
1776408546990859542,0.336
1776408546998551332,0.343
1776408547006243122,0.353
1776408547013934912,0.363
1776408547021626702,0.377
1776408547029318492,0.385
1776408547037010282,0.363
1776408547044702072,0.321
1776408547052393862,0.28400000000000003
1776408547060085652,0.272
1776408547067777442,0.23500000000000001
1776408547075469232,0.159,,704
1776408547083161034,0.132
1776408547090852824,0.122
1776408547098544614,0.051000000000000004
1776408547106236404,0.004
1776408547113928194,0.004
1776408547121619984,-0.014
1776408547129311774,-0.036000000000000004
1776408547137003564,-0.044
1776408547144695354,-0.046
1776408547152387144,-0.041
1776408547160078934,-0.029
1776408547167770724,-0.024
1776408547175462514,-0.009000000000000001
1776408547183154304,-0.007
1776408547190846094,0.0
1776408547198537884,0.022
1776408547206229674,0.017
1776408547213921464,0.012
1776408547221613254,0.044
1776408547229305044,0.051000000000000004
1776408547236996834,0.036000000000000004
1776408547244688624,0.036000000000000004
1776408547252380414,0.034
1776408547260072204,0.031
1776408547267763994,0.049
1776408547275455784,0.051000000000000004
1776408547283147574,0.041
1776408547290839364,0.044
1776408547298531154,0.039
1776408547306222944,0.029
1776408547313914734,0.031
1776408547321606524,0.044
1776408547329298314,0.049
1776408547336990104,0.034
1776408547344681894,0.026000000000000002
1776408547352373684,0.049
1776408547360065474,0.073
1776408547367757264,0.08
1776408547375449054,0.105
1776408547383140844,0.12
1776408547390832634,0.093
1776408547398524424,0.078
1776408547406216214,0.073
1776408547413908004,0.046
1776408547421599794,0.036000000000000004
1776408547429291584,0.046
1776408547436983374,0.044
1776408547444675164,0.051000000000000004
1776408547452366954,0.056
1776408547460058744,0.046
1776408547467750534,0.193
1776408547475442324,0.733
1776408547483134114,1.452
1776408547490825904,1.3
1776408547498517694,-0.382
1776408547506209484,-1.877
1776408547513901274,-1.484
1776408547521593064,-0.5640000000000001
1776408547529284854,-0.318
1776408547536976644,-0.041
1776408547544668434,0.28400000000000003
1776408547552360224,0.247
1776408547560052014,0.198
1776408547567743804,0.294
1776408547575435594,0.299
1776408547583127384,0.264
1776408547590819174,0.28700000000000003
1776408547598510964,0.296
1776408547606202754,0.28200000000000003
1776408547613894544,0.289
1776408547621586334,0.301
1776408547629278124,0.299
1776408547636969914,0.311
1776408547644661716,0.323,79
1776408547652353506,0.326
1776408547660045296,0.365
1776408547667737086,0.395
1776408547675428876,0.387
1776408547683120666,0.399
1776408547690812456,0.41200000000000003
1776408547698504246,0.402
1776408547706196036,0.39
1776408547713887826,0.372
1776408547721579616,0.355
1776408547729271406,0.326
1776408547736963196,0.279
1776408547744654986,0.225
1776408547752346776,0.176
1776408547760038566,0.132,,690
1776408547767730356,0.078
1776408547775422146,0.014
1776408547783113936,-0.022
1776408547790805726,-0.022
1776408547798497516,-0.041
1776408547806189306,-0.07100000000000001
1776408547813881096,-0.058
1776408547821572886,-0.044
1776408547829264676,-0.068
1776408547836956466,-0.063
1776408547844648256,-0.014
1776408547852340046,-0.012
1776408547860031836,-0.026000000000000002
1776408547867723626,-0.002
1776408547875415416,0.009000000000000001
1776408547883107206,-0.002
1776408547890798996,-0.004
1776408547898490786,0.002
1776408547906182576,0.019
1776408547913874366,0.044
1776408547921566156,0.031
1776408547929257946,0.019
1776408547936949736,0.029
1776408547944641526,0.017
1776408547952333316,-0.014
1776408547960025106,-0.022
1776408547967716896,-0.002
1776408547975408686,0.014
1776408547983100476,0.009000000000000001
1776408547990792266,0.0
1776408547998484056,0.007
1776408548006175846,0.012
1776408548013867636,0.004
1776408548021559426,0.002
1776408548029251216,0.014
1776408548036943006,0.026000000000000002
1776408548044634796,0.031
1776408548052326586,0.024
1776408548060018376,0.034
1776408548067710166,0.049
1776408548075401956,0.026000000000000002
1776408548083093746,0.017
1776408548090785536,0.063
1776408548098477326,0.088
1776408548106169116,0.058
1776408548113860906,0.063
1776408548121552696,0.1
1776408548129244486,0.105
1776408548136936276,0.095
1776408548144628066,0.1
1776408548152319856,0.098
1776408548160011646,0.085
1776408548167703436,0.078
1776408548175395226,0.078
1776408548183087016,0.078
1776408548190778806,0.076
1776408548198470596,0.07100000000000001
1776408548206162398,0.068
1776408548213854188,0.076
1776408548221545978,0.147
1776408548229237768,0.493
1776408548236929558,1.197
1776408548244621348,1.518
1776408548252313138,0.365
1776408548260004928,-1.41
1776408548267696718,-1.673
1776408548275388508,-0.75
1776408548283080298,-0.296
1776408548290772088,-0.10300000000000001
1776408548298463878,0.223
1776408548306155668,0.26
1776408548313847458,0.169
1776408548321539248,0.23500000000000001
1776408548329231038,0.28700000000000003
1776408548336922828,0.255
1776408548344614618,0.25
1776408548352306408,0.264
1776408548359998198,0.272
1776408548367689988,0.28700000000000003
1776408548375381778,0.304
1776408548383073568,0.294
1776408548390765358,0.291
1776408548398457148,0.299
1776408548406148938,0.309
1776408548413840728,0.316
1776408548421532518,0.326,,656
1776408548429224308,0.341
1776408548436916098,0.35000000000000003
1776408548444607888,0.368
1776408548452299678,0.387
1776408548459991468,0.365
1776408548467683258,0.34800000000000003
1776408548475375048,0.341
1776408548483066838,0.304
1776408548490758628,0.28400000000000003
1776408548498450418,0.272
1776408548506142208,0.213
1776408548513833998,0.147
1776408548521525788,0.11
1776408548529217578,0.073
1776408548536909368,0.044
1776408548544601158,0.024
1776408548552292948,-0.009000000000000001
1776408548559984738,-0.029
1776408548567676528,-0.031
1776408548575368318,-0.041
1776408548583060108,-0.022
1776408548590751898,0.007
1776408548598443688,0.012
1776408548606135478,0.009000000000000001
1776408548613827268,0.0
1776408548621519058,0.002
1776408548629210848,0.039
1776408548636902638,0.056
1776408548644594428,0.031
1776408548652286218,0.017
1776408548659978008,0.036000000000000004
1776408548667669798,0.068
1776408548675361588,0.056
1776408548683053378,0.039
1776408548690745168,0.051000000000000004
1776408548698436958,0.051000000000000004
1776408548706128748,0.031
1776408548713820538,0.026000000000000002
1776408548721512328,0.036000000000000004
1776408548729204118,0.026000000000000002
1776408548736895908,0.022
1776408548744587698,0.041
1776408548752279488,0.049
1776408548759971278,0.029
1776408548767663080,0.024,80
1776408548775354870,0.039
1776408548783046660,0.039
1776408548790738450,0.024
1776408548798430240,0.024
1776408548806122030,0.034
1776408548813813820,0.029
1776408548821505610,0.034
1776408548829197400,0.039
1776408548836889190,0.031
1776408548844580980,0.036000000000000004
1776408548852272770,0.046
1776408548859964560,0.053
1776408548867656350,0.066
1776408548875348140,0.063
1776408548883039930,0.056
1776408548890731720,0.058
1776408548898423510,0.061
1776408548906115300,0.093
1776408548913807090,0.125
1776408548921498880,0.115
1776408548929190670,0.095
1776408548936882460,0.098
1776408548944574250,0.1
1776408548952266040,0.066
1776408548959957830,0.022
1776408548967649620,0.022
1776408548975341410,0.031
1776408548983033200,0.039
1776408548990724990,0.058
1776408548998416780,0.044
1776408549006108570,0.085
1776408549013800360,0.458
1776408549021492150,1.163
1776408549029183940,1.445
1776408549036875730,0.299
1776408549044567520,-1.472
1776408549052259310,-1.7830000000000001
1776408549059951100,-0.878
1776408549067642890,-0.404
1776408549075334680,-0.218
1776408549083026470,0.149
1776408549090718260,0.262
1776408549098410050,0.157
1776408549106101840,0.191,,688
1776408549113793630,0.26
1776408549121485420,0.247
1776408549129177210,0.24
1776408549136869000,0.257
1776408549144560790,0.264
1776408549152252580,0.262
1776408549159944370,0.277
1776408549167636160,0.296
1776408549175327950,0.294
1776408549183019740,0.294
1776408549190711530,0.311
1776408549198403320,0.331
1776408549206095110,0.34800000000000003
1776408549213786900,0.355
1776408549221478690,0.36
1776408549229170480,0.372
1776408549236862270,0.382
1776408549244554060,0.377
1776408549252245850,0.36
1776408549259937640,0.34500000000000003
1776408549267629430,0.321
1776408549275321220,0.277
1776408549283013010,0.233
1776408549290704800,0.186
1776408549298396590,0.134
1776408549306088380,0.08
1776408549313780170,0.068
1776408549321471960,0.068
1776408549329163762,0.019
1776408549336855970,-0.014
1776408549344548178,-0.002
1776408549352240386,-0.007
1776408549359932594,-0.031
1776408549367624802,-0.031
1776408549375317010,-0.009000000000000001
1776408549383009218,0.002
1776408549390701426,0.0
1776408549398393634,0.002
1776408549406085842,0.004
1776408549413778050,0.012
1776408549421470258,0.024
1776408549429162466,0.026000000000000002
1776408549436854674,0.053
1776408549444546882,0.07100000000000001
1776408549452239090,0.041
1776408549459931298,0.017
1776408549467623506,0.012
1776408549475315714,0.002
1776408549483007922,-0.002
1776408549490700130,-0.004
1776408549498392338,-0.009000000000000001
1776408549506084546,-0.014
1776408549513776754,-0.012
1776408549521468962,-0.007
1776408549529161170,-0.012
1776408549536853378,-0.019
1776408549544545586,-0.002
1776408549552237794,0.012
1776408549559930002,0.004
1776408549567622210,0.012
1776408549575314418,0.024
1776408549583006626,0.022
1776408549590698834,0.024
1776408549598391042,0.029
1776408549606083250,0.026000000000000002
1776408549613775458,0.019
1776408549621467666,0.034
1776408549629159874,0.066
1776408549636852082,0.049
1776408549644544290,0.039
1776408549652236498,0.08
1776408549659928706,0.1
1776408549667620914,0.09
1776408549675313122,0.09
1776408549683005330,0.08
1776408549690697538,0.068
1776408549698389746,0.063
1776408549706081954,0.051000000000000004
1776408549713774162,0.039
1776408549721466370,0.036000000000000004
1776408549729158578,0.046
1776408549736850786,0.063
1776408549744542994,0.056
1776408549752235202,0.08
1776408549759927410,0.368
1776408549767619618,1.055
1776408549775311826,1.5310000000000001
1776408549783004034,0.618
1776408549790696242,-1.268
1776408549798388450,-1.8940000000000001
1776408549806080658,-1.0030000000000001
1776408549813772866,-0.404,,704
1776408549821465074,-0.247
1776408549829157282,0.11
1776408549836849490,0.28200000000000003
1776408549844541698,0.184
1776408549852233906,0.20600000000000002
1776408549859926114,0.28400000000000003
1776408549867618322,0.274
1776408549875310530,0.264
1776408549883002738,0.28400000000000003
1776408549890694960,0.296,81
1776408549898386750,0.304
1776408549906078540,0.311
1776408549913770330,0.318
1776408549921462120,0.309
1776408549929153910,0.291
1776408549936845700,0.304
1776408549944537490,0.331
1776408549952229280,0.341
1776408549959921070,0.34500000000000003
1776408549967612860,0.353
1776408549975304650,0.34500000000000003
1776408549982996440,0.34500000000000003
1776408549990688230,0.36
1776408549998380020,0.358
1776408550006071810,0.328
1776408550013763600,0.306
1776408550021455390,0.28700000000000003
1776408550029147180,0.242
1776408550036838970,0.191
1776408550044530760,0.154
1776408550052222550,0.11
1776408550059914340,0.056
1776408550067606130,0.026000000000000002
1776408550075297920,0.014
1776408550082989710,-0.007
1776408550090681500,-0.022
1776408550098373290,-0.019
1776408550106065080,-0.017
1776408550113756870,-0.019
1776408550121448660,-0.009000000000000001
1776408550129140450,0.004
1776408550136832240,0.007
1776408550144524030,0.022
1776408550152215820,0.039
1776408550159907610,0.029
1776408550167599400,0.026000000000000002
1776408550175291190,0.051000000000000004
1776408550182982980,0.073
1776408550190674770,0.066
1776408550198366560,0.056
1776408550206058350,0.063
1776408550213750140,0.066
1776408550221441930,0.061
1776408550229133720,0.056
1776408550236825510,0.044
1776408550244517300,0.034
1776408550252209090,0.041
1776408550259900880,0.049
1776408550267592670,0.041
1776408550275284460,0.036000000000000004
1776408550282976250,0.046
1776408550290668040,0.053
1776408550298359830,0.051000000000000004
1776408550306051620,0.051000000000000004
1776408550313743410,0.053
1776408550321435200,0.044
1776408550329126990,0.031
1776408550336818780,0.046
1776408550344510570,0.066
1776408550352202360,0.061
1776408550359894150,0.056
1776408550367585940,0.066
1776408550375277730,0.058
1776408550382969520,0.061
1776408550390661310,0.073
1776408550398353100,0.07100000000000001
1776408550406044890,0.061
1776408550413736680,0.063
1776408550421428470,0.068
1776408550429120260,0.056
1776408550436812050,0.058
1776408550444503840,0.095
1776408550452195644,0.1,82
1776408550459887434,0.08
1776408550467579224,0.095
1776408550475271014,0.085
1776408550482962804,0.039,,673
1776408550490654594,0.022
1776408550498346384,0.022
1776408550506038174,0.009000000000000001
1776408550513729964,0.0
1776408550521421754,0.004
1776408550529113544,0.012
1776408550536805334,0.019
1776408550544497124,0.029
1776408550552188914,0.154
1776408550559880704,0.628
1776408550567572494,1.332
1776408550575264284,1.297
1776408550582956074,-0.20800000000000002
1776408550590647864,-1.737
1776408550598339654,-1.5350000000000001
1776408550606031444,-0.633
1776408550613723234,-0.331
1776408550621415024,-0.098
1776408550629106814,0.211
1776408550636798604,0.20600000000000002
1776408550644490394,0.147
1776408550652182184,0.223
1776408550659873974,0.247
1776408550667565764,0.23
1776408550675257554,0.247
1776408550682949344,0.26
1776408550690641134,0.252
1776408550698332924,0.26
1776408550706024714,0.277
1776408550713716504,0.291
1776408550721408294,0.304
1776408550729100084,0.311
1776408550736791874,0.311
1776408550744483664,0.316
1776408550752175454,0.323
1776408550759867244,0.341
1776408550767559034,0.375
1776408550775250824,0.385
1776408550782942614,0.377
1776408550790634404,0.385
1776408550798326194,0.385
1776408550806017984,0.36
1776408550813709774,0.328
1776408550821401564,0.291
1776408550829093354,0.252
1776408550836785144,0.20800000000000002
1776408550844476934,0.169
1776408550852168724,0.134
1776408550859860514,0.098
1776408550867552304,0.073
1776408550875244094,0.056
1776408550882935884,0.029
1776408550890627674,0.0
1776408550898319464,-0.002
1776408550906011254,0.017
1776408550913703044,0.014
1776408550921394834,0.012
1776408550929086624,0.041
1776408550936778414,0.051000000000000004
1776408550944470204,0.039
1776408550952161994,0.044
1776408550959853784,0.056
1776408550967545574,0.061
1776408550975237364,0.053
1776408550982929154,0.041
1776408550990620944,0.036000000000000004
1776408550998312734,0.039
1776408551006004524,0.029
1776408551013696326,0.009000000000000001
1776408551021388116,0.009000000000000001
1776408551029079906,0.022
1776408551036771696,0.031
1776408551044463486,0.041
1776408551052155276,0.019
1776408551059847066,-0.002
1776408551067538856,0.017
1776408551075230646,0.031
1776408551082922436,0.029
1776408551090614226,0.017
1776408551098306016,0.0
1776408551105997806,-0.004
1776408551113689596,0.007
1776408551121381386,0.009000000000000001
1776408551129073176,0.0
1776408551136764966,0.004
1776408551144456756,0.004
1776408551152148546,-0.009000000000000001
1776408551159840336,-0.004
1776408551167532126,0.017
1776408551175223916,0.014
1776408551182915706,-0.007
1776408551190607496,-0.022
1776408551198299286,-0.014
1776408551205991076,0.012
1776408551213682866,0.012
1776408551221374656,0.004
1776408551229066446,0.024
1776408551236758236,0.007
1776408551244450026,-0.014,,757
1776408551252141816,0.017
1776408551259833606,0.034
1776408551267525396,0.049
1776408551275217186,0.122
1776408551282908976,0.14400000000000002
1776408551290600766,0.073
1776408551298292556,0.002
1776408551305984346,-0.022
1776408551313676136,-0.022
1776408551321367926,-0.009000000000000001
1776408551329059716,0.0
1776408551336751506,-0.002
1776408551344443296,-0.002
1776408551352135086,0.004
1776408551359826876,0.036000000000000004
1776408551367518666,0.252
1776408551375210456,0.812
1776408551382902246,1.32
1776408551390594036,0.777
1776408551398285826,-0.76
1776408551405977616,-1.5230000000000001
1776408551413669406,-0.9490000000000001
1776408551421361196,-0.404
1776408551429052986,-0.242
1776408551436744776,0.056
1776408551444436566,0.272
1776408551452128356,0.225
1776408551459820146,0.23
1776408551467511936,0.304
1776408551475203726,0.299
1776408551482895516,0.269
1776408551490587306,0.28400000000000003
1776408551498279096,0.301
1776408551505970886,0.274
1776408551513662676,0.277
1776408551521354466,0.314
1776408551529046256,0.306
1776408551536738046,0.299
1776408551544429836,0.328
1776408551552121626,0.34800000000000003
1776408551559813416,0.358
1776408551567505206,0.314
1776408551575197008,0.289,81
1776408551582888798,0.372
1776408551590580588,0.377
1776408551598272378,0.311
1776408551605964168,0.321
1776408551613655958,0.323
1776408551621347748,0.272
1776408551629039538,0.22
1776408551636731328,0.186
1776408551644423118,0.157
1776408551652114908,0.132
1776408551659806698,0.14200000000000002
1776408551667498488,0.137
1776408551675190278,0.078
1776408551682882068,0.046
1776408551690573858,0.034
1776408551698265648,-0.004
1776408551705957438,-0.017
1776408551713649228,-0.012
1776408551721341018,-0.024
1776408551729032808,-0.009000000000000001
1776408551736724598,0.0
1776408551744416388,0.007
1776408551752108178,0.051000000000000004
1776408551759799968,0.058
1776408551767491758,0.044
1776408551775183548,0.07100000000000001
1776408551782875338,0.078
1776408551790567128,0.068
1776408551798258918,0.09
1776408551805950708,0.083
1776408551813642498,0.051000000000000004
1776408551821334288,0.066
1776408551829026078,0.093
1776408551836717868,0.078
1776408551844409658,0.063
1776408551852101448,0.093
1776408551859793238,0.10300000000000001
1776408551867485028,0.07100000000000001
1776408551875176818,0.044
1776408551882868608,0.056
1776408551890560398,0.095
1776408551898252188,0.093
1776408551905943978,0.068
1776408551913635768,0.08
1776408551921327558,0.088
1776408551929019348,0.073
1776408551936711138,0.068
1776408551944402928,0.07100000000000001
1776408551952094718,0.073
1776408551959786508,0.073
1776408551967478298,0.066
1776408551975170088,0.058
1776408551982861878,0.053
1776408551990553668,0.056
1776408551998245458,0.066
1776408552005937248,0.061
1776408552013629038,0.058
1776408552021320828,0.068,,784
1776408552029012618,0.088
1776408552036704408,0.088
1776408552044396198,0.07100000000000001
1776408552052087988,0.056
1776408552059779778,0.083
1776408552067471568,0.12
1776408552075163358,0.115
1776408552082855148,0.105
1776408552090546938,0.085
1776408552098238728,0.068
1776408552105930518,0.073
1776408552113622308,0.049
1776408552121314098,0.024
1776408552129005888,0.031
1776408552136697690,0.034
1776408552144389828,0.029
1776408552152081966,0.056
1776408552159774104,0.152
1776408552167466242,0.431
1776408552175158380,0.986
1776408552182850518,1.209
1776408552190542656,0.191
1776408552198234794,-1.207
1776408552205926932,-1.324
1776408552213619070,-0.657
1776408552221311208,-0.343
1776408552229003346,-0.134
1776408552236695484,0.164
1776408552244387622,0.20800000000000002
1776408552252079760,0.125
1776408552259771898,0.171
1776408552267464036,0.215
1776408552275156174,0.191
1776408552282848312,0.201
1776408552290540450,0.22
1776408552298232588,0.211
1776408552305924726,0.211
1776408552313616864,0.228
1776408552321309002,0.245
1776408552329001140,0.25
1776408552336693278,0.257
1776408552344385416,0.28200000000000003
1776408552352077554,0.291
1776408552359769692,0.28400000000000003
1776408552367461830,0.306
1776408552375153968,0.336
1776408552382846106,0.333
1776408552390538244,0.336
1776408552398230382,0.358
1776408552405922520,0.363
1776408552413614658,0.336
1776408552421306796,0.301
1776408552428998934,0.28200000000000003
1776408552436691072,0.23800000000000002
1776408552444383210,0.171
1776408552452075348,0.139
1776408552459767486,0.098
1776408552467459624,0.061
1776408552475151762,0.066
1776408552482843900,0.049
1776408552490536038,0.009000000000000001
1776408552498228176,0.002
1776408552505920314,0.012
1776408552513612452,0.017
1776408552521304590,0.017
1776408552528996728,0.019
1776408552536688866,0.026000000000000002
1776408552544381004,0.049
1776408552552073142,0.063
1776408552559765280,0.063
1776408552567457418,0.068
1776408552575149556,0.078
1776408552582841694,0.078
1776408552590533832,0.08
1776408552598225970,0.095
1776408552605918108,0.1
1776408552613610246,0.085
1776408552621302384,0.085
1776408552628994522,0.095
1776408552636686660,0.073
1776408552644378798,0.056
1776408552652070936,0.049
1776408552659763074,0.024
1776408552667455212,0.004
1776408552675147350,0.002
1776408552682839488,-0.012
1776408552690531626,-0.029
1776408552698223802,-0.029,81
1776408552705915661,-0.022
1776408552713607520,-0.002
1776408552721299379,0.012
1776408552728991238,0.0
1776408552736683097,-0.014
1776408552744374956,0.0
1776408552752066815,0.017
1776408552759758674,0.019
1776408552767450533,0.029
1776408552775142392,0.029,,747
1776408552782834251,0.022
1776408552790526110,0.026000000000000002
1776408552798217969,0.051000000000000004
1776408552805909828,0.07100000000000001
1776408552813601687,0.07100000000000001
1776408552821293546,0.063
1776408552828985405,0.068
1776408552836677264,0.076
1776408552844369123,0.053
1776408552852060982,0.026000000000000002
1776408552859752841,0.036000000000000004
1776408552867444700,0.053
1776408552875136559,0.046
1776408552882828418,0.041
1776408552890520277,0.058
1776408552898212136,0.095
1776408552905903995,0.269
1776408552913595854,0.785
1776408552921287713,1.305
1776408552928979572,0.736
1776408552936671431,-0.868
1776408552944363290,-1.597
1776408552952055149,-1.0050000000000001
1776408552959747008,-0.532
1776408552967438867,-0.35000000000000003
1776408552975130726,0.053
1776408552982822585,0.299
1776408552990514444,0.213
1776408552998206303,0.198
1776408553005898162,0.274
1776408553013590021,0.257
1776408553021281880,0.23800000000000002
1776408553028973739,0.269
1776408553036665598,0.279
1776408553044357457,0.277
1776408553052049316,0.28200000000000003
1776408553059741175,0.274
1776408553067433034,0.28700000000000003
1776408553075124893,0.321
1776408553082816752,0.318
1776408553090508611,0.301
1776408553098200470,0.323
1776408553105892329,0.35000000000000003
1776408553113584188,0.358
1776408553121276047,0.36
1776408553128967906,0.372
1776408553136659765,0.375
1776408553144351624,0.358
1776408553152043483,0.341
1776408553159735342,0.314
1776408553167427201,0.274
1776408553175119060,0.23800000000000002
1776408553182810919,0.198
1776408553190502778,0.134
1776408553198194637,0.061
1776408553205886496,0.031
1776408553213578355,0.031
1776408553221270214,0.014
1776408553228962073,-0.007
1776408553236653932,-0.029
1776408553244345791,-0.036000000000000004
1776408553252037650,-0.012
1776408553259729570,-0.022
1776408553267421360,-0.034
1776408553275113150,-0.019
1776408553282804940,-0.031
1776408553290496730,-0.014
1776408553298188520,0.024
1776408553305880310,0.017
1776408553313572100,0.029
1776408553321263890,0.041
1776408553328955680,0.014
1776408553336647470,0.004
1776408553344339260,-0.002
1776408553352031050,-0.004
1776408553359722840,0.024
1776408553367414630,0.039
1776408553375106420,0.014
1776408553382798210,-0.009000000000000001
1776408553390490000,-0.022
1776408553398181790,-0.022
1776408553405873580,-0.026000000000000002
1776408553413565370,-0.044
1776408553421257160,-0.012
1776408553428948950,0.0
1776408553436640740,-0.049
1776408553444332530,-0.031
1776408553452024320,0.022
1776408553459716110,-0.009000000000000001
1776408553467407900,-0.024
1776408553475099690,0.004
1776408553482791480,-0.024
1776408553490483270,-0.051000000000000004
1776408553498175060,-0.014
1776408553505866850,0.019
1776408553513558640,0.046
1776408553521250430,0.076
1776408553528942220,0.068
1776408553536634010,0.044
1776408553544325800,0.039
1776408553552017590,0.022
1776408553559709380,0.002
1776408553567401170,0.036000000000000004,,797
1776408553575092960,0.051000000000000004
1776408553582784750,0.012
1776408553590476540,0.019
1776408553598168330,0.031
1776408553605860120,0.12
1776408553613551910,0.544
1776408553621243700,1.29
1776408553628935490,1.506
1776408553636627280,0.14200000000000002
1776408553644319070,-1.697
1776408553652010860,-1.823
1776408553659702650,-0.8170000000000001
1776408553667394440,-0.385
1776408553675086230,-0.196
1776408553682778020,0.191
1776408553690469810,0.28700000000000003
1776408553698161600,0.164
1776408553705853390,0.211
1776408553713545180,0.269
1776408553721236970,0.23800000000000002
1776408553728928760,0.264
1776408553736620550,0.291
1776408553744312340,0.255
1776408553752004130,0.264
1776408553759695920,0.318
1776408553767387710,0.314
1776408553775079500,0.28700000000000003
1776408553782771290,0.321
1776408553790463080,0.336
1776408553798154870,0.309
1776408553805846660,0.353
1776408553813538450,0.446
1776408553821230254,0.444,81
1776408553828922044,0.404
1776408553836613834,0.429
1776408553844305624,0.439
1776408553851997414,0.397
1776408553859689204,0.38
1776408553867380994,0.387
1776408553875072784,0.341
1776408553882764574,0.269
1776408553890456364,0.23500000000000001
1776408553898148154,0.188
1776408553905839944,0.095
1776408553913531734,0.066
1776408553921223524,0.088
1776408553928915314,0.017
1776408553936607104,-0.083
1776408553944298894,-0.061
1776408553951990684,-0.014
1776408553959682474,-0.031
1776408553967374264,-0.026000000000000002
1776408553975066054,-0.009000000000000001
1776408553982757844,-0.026000000000000002
1776408553990449634,-0.012
1776408553998141424,0.004
1776408554005833214,0.0
1776408554013525004,0.017
1776408554021216794,0.031
1776408554028908584,0.022
1776408554036600374,0.034
1776408554044292164,0.053
1776408554051983954,0.046
1776408554059675744,0.044
1776408554067367534,0.049
1776408554075059324,0.039
1776408554082751114,0.036000000000000004
1776408554090442904,0.034
1776408554098134694,0.017
1776408554105826484,0.012
1776408554113518274,0.019
1776408554121210064,0.012
1776408554128901854,0.022
1776408554136593644,0.041
1776408554144285434,0.024
1776408554151977224,0.014
1776408554159669014,0.026000000000000002
1776408554167360804,0.019
1776408554175052594,0.044
1776408554182744384,0.088
1776408554190436174,0.066
1776408554198127964,0.026000000000000002
1776408554205819754,0.007
1776408554213511544,-0.041
1776408554221203334,-0.049
1776408554228895124,0.017
1776408554236586914,0.009000000000000001
1776408554244278704,-0.051000000000000004
1776408554251970494,-0.029
1776408554259662284,0.022
1776408554267354074,0.031
1776408554275045864,0.196
1776408554282737654,0.8170000000000001
1776408554290429444,1.543
1776408554298121234,1.1380000000000001
1776408554305813024,-0.743
1776408554313504814,-2.075
1776408554321196604,-1.474
1776408554328888394,-0.5710000000000001
1776408554336580184,-0.365
1776408554344271974,-0.068
1776408554351963764,0.255
1776408554359655554,0.228
1776408554367347344,0.193
1776408554375039134,0.272
1776408554382730936,0.262,80,813
1776408554390422726,0.23800000000000002
1776408554398114516,0.28400000000000003
1776408554405806306,0.301
1776408554413498096,0.262
1776408554421189886,0.26
1776408554428881676,0.304
1776408554436573466,0.321
1776408554444265256,0.316
1776408554451957046,0.326
1776408554459648836,0.336
1776408554467340626,0.338
1776408554475032416,0.34800000000000003
1776408554482724206,0.368
1776408554490415996,0.397
1776408554498107786,0.417
1776408554505799576,0.40900000000000003
1776408554513491366,0.40700000000000003
1776408554521183156,0.395
1776408554528874946,0.355
1776408554536566736,0.328
1776408554544258526,0.28700000000000003
1776408554551950316,0.20600000000000002
1776408554559642106,0.169
1776408554567333896,0.149
1776408554575025686,0.07100000000000001
1776408554582717476,0.007
1776408554590409266,-0.004
1776408554598101056,-0.024
1776408554605792846,-0.061
1776408554613484636,-0.066
1776408554621176426,-0.039
1776408554628868216,-0.034
1776408554636560006,-0.046
1776408554644251796,-0.046
1776408554651943586,-0.039
1776408554659635376,-0.024
1776408554667327166,0.007
1776408554675018956,0.017
1776408554682710746,-0.012
1776408554690402536,-0.004
1776408554698094326,0.026000000000000002
1776408554705786116,0.022
1776408554713477906,0.002
1776408554721169696,0.014
1776408554728861486,0.024
1776408554736553276,0.014
1776408554744245066,0.019
1776408554751936856,0.017
1776408554759628646,0.0
1776408554767320436,0.009000000000000001
1776408554775012226,0.012
1776408554782704016,-0.012
1776408554790395806,0.0
1776408554798087596,0.046
1776408554805779386,0.058
1776408554813471176,0.044
1776408554821162966,0.031
1776408554828854756,0.029
1776408554836546546,0.044
1776408554844238336,0.058
1776408554851930126,0.066
1776408554859621916,0.061
1776408554867313706,0.049
1776408554875005496,0.056
1776408554882697286,0.049
1776408554890389076,0.017
1776408554898080866,0.034
1776408554905772656,0.056
1776408554913464446,0.031
1776408554921156236,0.004
1776408554928848026,0.031
1776408554936539816,0.28400000000000003
1776408554944231618,0.976
1776408554951923408,1.6340000000000001
1776408554959615198,1.032
1776408554967306988,-0.932
1776408554974998778,-2.048
1776408554982690568,-1.278
1776408554990382358,-0.47800000000000004
1776408554998074148,-0.338
1776408555005765938,-0.014
1776408555013457728,0.25
1776408555021149518,0.159
1776408555028841308,0.157
1776408555036533098,0.257
1776408555044224888,0.23
1776408555051916678,0.193
1776408555059608468,0.23
1776408555067300258,0.252
1776408555074992048,0.23500000000000001
1776408555082683838,0.25
1776408555090375628,0.28200000000000003
1776408555098067418,0.28700000000000003
1776408555105759208,0.289
1776408555113450998,0.291
1776408555121142788,0.296
1776408555128834578,0.343
1776408555136526368,0.375
1776408555144218158,0.355
1776408555151909948,0.368
1776408555159601738,0.40700000000000003
1776408555167293528,0.402
1776408555174985318,0.375
1776408555182677108,0.35000000000000003,,797
1776408555190368898,0.314
1776408555198060688,0.289
1776408555205752478,0.255
1776408555213444268,0.188
1776408555221136058,0.137
1776408555228827848,0.098
1776408555236519638,0.034
1776408555244211428,-0.022
1776408555251903218,-0.031
1776408555259595008,-0.036000000000000004
1776408555267286798,-0.076
1776408555274978588,-0.078
1776408555282670378,-0.051000000000000004
1776408555290362168,-0.058
1776408555298053958,-0.078
1776408555305745748,-0.058
1776408555313437538,-0.014
1776408555321129328,-0.012
1776408555328821118,-0.024
1776408555336512908,0.007
1776408555344204698,0.026000000000000002
1776408555351896488,0.007
1776408555359588278,0.0
1776408555367280068,0.026000000000000002
1776408555374971858,0.036000000000000004
1776408555382663648,0.022
1776408555390355438,0.034
1776408555398047228,0.029
1776408555405739018,0.007
1776408555413430808,0.022
1776408555421122598,0.034
1776408555428814388,0.004
1776408555436506178,-0.007
1776408555444197968,0.017
1776408555451889758,0.026000000000000002
1776408555459581548,0.014
1776408555467273338,0.022
1776408555474965128,0.029
1776408555482656918,0.024
1776408555490348708,0.024
1776408555498040498,0.034
1776408555505732300,0.051000000000000004,80
1776408555513424090,0.063
1776408555521115880,0.083
1776408555528807670,0.09
1776408555536499460,0.063
1776408555544191250,0.031
1776408555551883040,0.019
1776408555559574830,0.036000000000000004
1776408555567266620,0.039
1776408555574958410,0.022
1776408555582650200,0.031
1776408555590341990,0.041
1776408555598033780,0.026000000000000002
1776408555605725570,0.098
1776408555613417360,0.49
1776408555621109150,1.243
1776408555628800940,1.612
1776408555636492730,0.441
1776408555644184520,-1.5310000000000001
1776408555651876310,-1.923
1776408555659568100,-0.883
1776408555667259890,-0.35000000000000003
1776408555674951680,-0.20600000000000002
1776408555682643470,0.152
1776408555690335260,0.289
1776408555698027050,0.203
1776408555705718840,0.213
1776408555713410630,0.23
1776408555721102420,0.213
1776408555728794210,0.24
1776408555736486000,0.25
1776408555744177790,0.24
1776408555751869580,0.26
1776408555759561370,0.272
1776408555767253160,0.269
1776408555774944950,0.28400000000000003
1776408555782636740,0.309
1776408555790328530,0.331
1776408555798020320,0.326
1776408555805712110,0.323
1776408555813403900,0.343
1776408555821095690,0.336
1776408555828787480,0.355
1776408555836479270,0.40700000000000003
1776408555844171060,0.395
1776408555851862850,0.358
1776408555859554640,0.34500000000000003
1776408555867246430,0.316
1776408555874938220,0.262
1776408555882630010,0.215
1776408555890321800,0.186
1776408555898013590,0.14400000000000002
1776408555905705380,0.07100000000000001
1776408555913397170,0.022
1776408555921088960,-0.002,,741
1776408555928780750,-0.051000000000000004
1776408555936472540,-0.068
1776408555944164330,-0.031
1776408555951856120,-0.031
1776408555959547910,-0.061
1776408555967239700,-0.056
1776408555974931490,-0.046
1776408555982623280,-0.044
1776408555990315070,-0.031
1776408555998006860,-0.012
1776408556005698650,0.0
1776408556013390440,0.009000000000000001
1776408556021082230,0.022
1776408556028774020,0.034
1776408556036465810,0.034
1776408556044157600,0.024
1776408556051849390,0.036000000000000004
1776408556059541180,0.041
1776408556067232982,0.012
1776408556074924772,-0.002
1776408556082616562,0.031
1776408556090308352,0.049
1776408556098000142,0.026000000000000002
1776408556105691932,0.022
1776408556113383722,0.022
1776408556121075512,0.022
1776408556128767302,0.026000000000000002
1776408556136459092,0.012
1776408556144150882,0.007
1776408556151842672,0.019
1776408556159534462,0.014
1776408556167226252,0.007
1776408556174918042,-0.002
1776408556182609832,-0.036000000000000004
1776408556190301622,0.004
1776408556197993412,0.107
1776408556205685202,0.09
1776408556213376992,0.024
1776408556221068782,0.036000000000000004
1776408556228760572,0.017
1776408556236452362,-0.014
1776408556244144152,0.026000000000000002
1776408556251835942,0.041
1776408556259527732,0.022
1776408556267219522,0.073
1776408556274911312,0.093
1776408556282603102,0.022
1776408556290294892,0.026000000000000002
1776408556297986682,0.073
1776408556305678472,0.039
1776408556313370262,0.014
1776408556321062052,0.041
1776408556328753842,0.044
1776408556336445632,0.026000000000000002
1776408556344137422,0.026000000000000002
1776408556351829212,0.14400000000000002
1776408556359521002,0.62
1776408556367212792,1.374
1776408556374904582,1.484
1776408556382596372,0.017
1776408556390288162,-1.766
1776408556397979952,-1.712
1776408556405671742,-0.664
1776408556413363532,-0.333
1776408556421055322,-0.17400000000000002
1776408556428747112,0.193
1776408556436438902,0.267
1776408556444130692,0.196
1776408556451822482,0.23800000000000002
1776408556459514272,0.277
1776408556467206062,0.257
1776408556474897852,0.255
1776408556482589642,0.28400000000000003
1776408556490281432,0.28200000000000003
1776408556497973222,0.274
1776408556505665012,0.301
1776408556513356802,0.318
1776408556521048592,0.311
1776408556528740382,0.316
1776408556536432172,0.343
1776408556544123962,0.36
1776408556551815752,0.34500000000000003
1776408556559507542,0.34500000000000003
1776408556567199332,0.38
1776408556574891122,0.39
1776408556582582912,0.39
1776408556590274702,0.40700000000000003
1776408556597966492,0.39
1776408556605658282,0.333
1776408556613350072,0.299
1776408556621041862,0.289,,704
1776408556628733664,0.247,81
1776408556636425454,0.211
1776408556644117244,0.171
1776408556651809034,0.083
1776408556659500824,0.026000000000000002
1776408556667192614,0.019
1776408556674884404,0.0
1776408556682576194,-0.017
1776408556690267984,-0.024
1776408556697959774,-0.056
1776408556705651564,-0.08
1776408556713343354,-0.029
1776408556721035144,0.031
1776408556728726934,0.007
1776408556736418724,-0.034
1776408556744110514,-0.022
1776408556751802304,0.009000000000000001
1776408556759494094,0.017
1776408556767185884,0.017
1776408556774877674,0.034
1776408556782569464,0.049
1776408556790261254,0.046
1776408556797953044,0.044
1776408556805644834,0.046
1776408556813336624,0.046
1776408556821028414,0.051000000000000004
1776408556828720204,0.041
1776408556836411994,0.026000000000000002
1776408556844103784,0.029
1776408556851795574,0.034
1776408556859487364,0.029
1776408556867179154,0.044
1776408556874870944,0.056
1776408556882562734,0.039
1776408556890254524,0.031
1776408556897946314,0.036000000000000004
1776408556905638104,0.034
1776408556913329894,0.034
1776408556921021684,0.041
1776408556928713474,0.044
1776408556936405264,0.036000000000000004
1776408556944097054,0.017
1776408556951788844,0.007
1776408556959480634,0.053
1776408556967172424,0.095
1776408556974864214,0.061
1776408556982556004,0.049
1776408556990247794,0.088
1776408556997939584,0.095
1776408557005631374,0.068
1776408557013323164,0.063
1776408557021014954,0.088
1776408557028706744,0.1
1776408557036398534,0.098
1776408557044090324,0.093
1776408557051782114,0.105
1776408557059473904,0.117
1776408557067165694,0.1
1776408557074857484,0.083
1776408557082549274,0.078
1776408557090241064,0.056
1776408557097932854,0.041
1776408557105624644,0.056
1776408557113316434,0.063
1776408557121008224,0.063
1776408557128700014,0.093
1776408557136391804,0.296
1776408557144083594,0.907
1776408557151775384,1.553
1776408557159467174,1.0230000000000001
1776408557167158964,-0.836
1776408557174850754,-1.96
1776408557182542544,-1.27
1776408557190234346,-0.439
1776408557197926136,-0.255
1776408557205617926,0.017
1776408557213309716,0.262
1776408557221001506,0.20600000000000002
1776408557228693296,0.181
1776408557236385086,0.245
1776408557244076876,0.223
1776408557251768666,0.193
1776408557259460456,0.228
1776408557267152246,0.23500000000000001
1776408557274844036,0.215
1776408557282535826,0.228
1776408557290227616,0.24,,666
1776408557297919406,0.233
1776408557305611196,0.247
1776408557313302986,0.28400000000000003
1776408557320994776,0.28400000000000003
1776408557328686566,0.269
1776408557336378356,0.28700000000000003
1776408557344070146,0.309
1776408557351761936,0.328
1776408557359453726,0.34500000000000003
1776408557367145516,0.333
1776408557374837306,0.326
1776408557382529096,0.323
1776408557390220886,0.277
1776408557397912676,0.25
1776408557405604466,0.242
1776408557413296256,0.188
1776408557420988046,0.127
1776408557428679836,0.09
1776408557436371626,0.056
1776408557444063416,0.017
1776408557451755206,-0.022
1776408557459446996,-0.026000000000000002
1776408557467138786,-0.019
1776408557474830576,-0.061
1776408557482522366,-0.09
1776408557490214156,-0.051000000000000004
1776408557497905946,-0.029
1776408557505597736,-0.053
1776408557513289526,-0.029
1776408557520981316,0.012
1776408557528673106,-0.007
1776408557536364896,-0.022
1776408557544056686,0.002
1776408557551748476,0.009000000000000001
1776408557559440266,-0.012
1776408557567132056,0.017
1776408557574823846,0.07100000000000001
1776408557582515636,0.049
1776408557590207426,0.002
1776408557597899216,0.019
1776408557605591006,0.036000000000000004
1776408557613282796,0.012
1776408557620974586,0.017
1776408557628666376,0.046
1776408557636358166,0.031
1776408557644049956,0.009000000000000001
1776408557651741746,0.009000000000000001
1776408557659433536,0.017
1776408557667125326,0.029
1776408557674817116,0.022
1776408557682508906,0.009000000000000001
1776408557690200696,0.034
1776408557697892486,0.051000000000000004
1776408557705584276,0.029
1776408557713276066,0.004
1776408557720967856,0.029
1776408557728659646,0.073
1776408557736351436,0.049
1776408557744043226,0.007
1776408557751735028,0.029,82
1776408557759426818,0.049
1776408557767118608,0.051000000000000004
1776408557774810398,0.056
1776408557782502188,0.049
1776408557790193978,0.061
1776408557797885768,0.085
1776408557805577558,0.093
1776408557813269348,0.093
1776408557820961138,0.09
1776408557828652928,0.085
1776408557836344718,0.088
1776408557844036508,0.078
1776408557851728298,0.053
1776408557859420088,0.058
1776408557867111878,0.068
1776408557874803668,0.056
1776408557882495458,0.053
1776408557890187248,0.058
1776408557897879038,0.058
1776408557905570828,0.196
1776408557913262618,0.714
1776408557920954408,1.432
1776408557928646198,1.293
1776408557936337988,-0.38
1776408557944029778,-1.901
1776408557951721568,-1.543,,660
1776408557959413358,-0.606
1776408557967105148,-0.336
1776408557974796938,-0.08
1776408557982488728,0.257
1776408557990180518,0.25
1776408557997872308,0.186
1776408558005564098,0.272
1776408558013255888,0.28200000000000003
1776408558020947678,0.252
1776408558028639468,0.304
1776408558036331258,0.328
1776408558044023048,0.304
1776408558051714838,0.296
1776408558059406628,0.304
1776408558067098418,0.333
1776408558074790208,0.355
1776408558082481998,0.343
1776408558090173788,0.34500000000000003
1776408558097865578,0.38
1776408558105557368,0.404
1776408558113249158,0.419
1776408558120940948,0.40900000000000003
1776408558128632738,0.404
1776408558136324528,0.434
1776408558144016318,0.429
1776408558151708108,0.39
1776408558159399898,0.368
1776408558167091688,0.321
1776408558174783478,0.277
1776408558182475268,0.28400000000000003
1776408558190167058,0.242
1776408558197858848,0.137
1776408558205550638,0.09
1776408558213242428,0.093
1776408558220934218,0.051000000000000004
1776408558228626008,-0.002
1776408558236317798,-0.007
1776408558244009588,-0.004
1776408558251701378,-0.036000000000000004
1776408558259393168,-0.051000000000000004
1776408558267084958,-0.014
1776408558274776748,0.002
1776408558282468538,-0.009000000000000001
1776408558290160328,0.014
1776408558297852118,0.031
1776408558305543908,0.014
1776408558313235710,0.036000000000000004
1776408558320927500,0.053
1776408558328619290,0.034
1776408558336311080,0.058
1776408558344002870,0.098
1776408558351694660,0.061
1776408558359386450,0.026000000000000002
1776408558367078240,0.049
1776408558374770030,0.041
1776408558382461820,0.007
1776408558390153610,0.017
1776408558397845400,0.041
1776408558405537190,0.024
1776408558413228980,0.004
1776408558420920770,0.022
1776408558428612560,0.031
1776408558436304350,0.017
1776408558443996140,0.022
1776408558451687930,0.019
1776408558459379720,-0.002
1776408558467071510,0.007
1776408558474763300,0.029
1776408558482455090,0.019
1776408558490146880,0.014
1776408558497838670,0.014
1776408558505530460,0.014
1776408558513222250,0.026000000000000002
1776408558520914040,0.026000000000000002
1776408558528605830,0.024
1776408558536297620,0.034
1776408558543989410,0.036000000000000004
1776408558551681200,0.049
1776408558559372990,0.061
1776408558567064780,0.058
1776408558574756570,0.051000000000000004
1776408558582448360,0.041
1776408558590140150,0.041
1776408558597831940,0.066
1776408558605523730,0.051000000000000004
1776408558613215520,0.012
1776408558620907310,0.012,,674
1776408558628599100,0.024
1776408558636290890,0.024
1776408558643982680,0.026000000000000002
1776408558651674470,0.044
1776408558659366260,0.24
1776408558667058050,0.861
1776408558674749840,1.5350000000000001
1776408558682441630,1.052
1776408558690133420,-0.802
1776408558697825210,-1.97
1776408558705517000,-1.31
1776408558713208790,-0.483
1776408558720900580,-0.279
1776408558728592370,0.036000000000000004
1776408558736284160,0.294
1776408558743975950,0.20800000000000002
1776408558751667740,0.184
1776408558759359530,0.269
1776408558767051320,0.262
1776408558774743110,0.245
1776408558782434900,0.28700000000000003
1776408558790126690,0.296
1776408558797818480,0.277
1776408558805510270,0.274
1776408558813202060,0.28700000000000003
1776408558820893850,0.309
1776408558828585640,0.328
1776408558836277430,0.331
1776408558843969220,0.34500000000000003
1776408558851661010,0.368
1776408558859352800,0.377
1776408558867044590,0.382
1776408558874736392,0.39,82
1776408558882428112,0.399
1776408558890119832,0.399
1776408558897811552,0.39
1776408558905503272,0.399
1776408558913194992,0.387
1776408558920886712,0.328
1776408558928578432,0.279
1776408558936270152,0.242
1776408558943961872,0.191
1776408558951653592,0.139
1776408558959345312,0.09
1776408558967037032,0.041
1776408558974728752,-0.007
1776408558982420472,-0.024
1776408558990112192,0.0
1776408558997803912,-0.002
1776408559005495632,-0.031
1776408559013187352,-0.029
1776408559020879072,-0.022
1776408559028570792,-0.019
1776408559036262512,0.002
1776408559043954232,0.014
1776408559051645952,0.007
1776408559059337672,0.004
1776408559067029392,0.034
1776408559074721112,0.07100000000000001
1776408559082412832,0.068
1776408559090104552,0.041
1776408559097796272,0.051000000000000004
1776408559105487992,0.07100000000000001
1776408559113179712,0.058
1776408559120871432,0.046
1776408559128563152,0.049
1776408559136254872,0.041
1776408559143946592,0.026000000000000002
1776408559151638312,0.029
1776408559159330032,0.026000000000000002
1776408559167021752,0.034
1776408559174713472,0.051000000000000004
1776408559182405192,0.044
1776408559190096912,0.026000000000000002
1776408559197788632,0.034
1776408559205480352,0.041
1776408559213172072,0.036000000000000004
1776408559220863792,0.031
1776408559228555512,0.036000000000000004
1776408559236247232,0.036000000000000004
1776408559243938952,0.031
1776408559251630672,0.017
1776408559259322392,0.004
1776408559267014112,0.019
1776408559274705832,0.029
1776408559282397552,0.022
1776408559290089272,0.022
1776408559297780992,0.031
1776408559305472712,0.034
1776408559313164432,0.026000000000000002
1776408559320856152,0.026000000000000002
1776408559328547872,0.029
1776408559336239592,0.031
1776408559343931312,0.041
1776408559351623032,0.051000000000000004
1776408559359314752,0.044
1776408559367006472,0.044,,744
1776408559374698192,0.051000000000000004
1776408559382389912,0.051000000000000004
1776408559390081632,0.058
1776408559397773352,0.056
1776408559405465072,0.053
1776408559413156792,0.078
1776408559420848512,0.095
1776408559428540232,0.093
1776408559436231986,0.107,82
1776408559443923427,0.112
1776408559451614868,0.095
1776408559459306309,0.098
1776408559466997750,0.095
1776408559474689191,0.066
1776408559482380632,0.053
1776408559490072073,0.063
1776408559497763514,0.068
1776408559505454955,0.068
1776408559513146396,0.063
1776408559520837837,0.09
1776408559528529278,0.314
1776408559536220719,0.937
1776408559543912160,1.5230000000000001
1776408559551603601,0.907
1776408559559295042,-0.893
1776408559566986483,-1.827
1776408559574677924,-1.116
1776408559582369365,-0.399
1776408559590060806,-0.211
1776408559597752247,0.093
1776408559605443688,0.28200000000000003
1776408559613135129,0.201
1776408559620826570,0.20800000000000002
1776408559628518011,0.28200000000000003
1776408559636209452,0.272
1776408559643900893,0.272
1776408559651592334,0.294
1776408559659283775,0.28700000000000003
1776408559666975216,0.277
1776408559674666657,0.289
1776408559682358098,0.314
1776408559690049539,0.333
1776408559697740980,0.338
1776408559705432421,0.338
1776408559713123862,0.34800000000000003
1776408559720815303,0.365
1776408559728506744,0.375
1776408559736198185,0.387
1776408559743889626,0.399
1776408559751581067,0.397
1776408559759272508,0.395
1776408559766963949,0.392
1776408559774655390,0.358
1776408559782346831,0.304
1776408559790038272,0.274
1776408559797729713,0.257
1776408559805421154,0.218
1776408559813112595,0.169
1776408559820804036,0.14400000000000002
1776408559828495477,0.12
1776408559836186918,0.07100000000000001
1776408559843878359,0.034
1776408559851569800,0.029
1776408559859261241,0.024
1776408559866952682,0.0
1776408559874644123,-0.012
1776408559882335564,0.0
1776408559890027005,0.004
1776408559897718446,0.002
1776408559905409887,0.017
1776408559913101328,0.029
1776408559920792769,0.024
1776408559928484210,0.031
1776408559936175651,0.049
1776408559943867092,0.056
1776408559951558533,0.053
1776408559959249974,0.063
1776408559966941415,0.068
1776408559974632856,0.061
1776408559982324297,0.063
1776408559990015738,0.053
1776408559997707238,0.036000000000000004
1776408560005399028,0.041
1776408560013090818,0.036000000000000004
1776408560020782608,0.002
1776408560028474398,-0.002
1776408560036166188,0.019
1776408560043857978,0.024
1776408560051549768,0.017
1776408560059241558,0.017
1776408560066933348,0.004
1776408560074625138,0.004
1776408560082316928,0.014
1776408560090008718,0.0
1776408560097700508,-0.014
1776408560105392298,-0.002
1776408560113084088,0.0
1776408560120775878,-0.009000000000000001
1776408560128467668,0.002
1776408560136159458,0.012
1776408560143851248,0.012
1776408560151543038,0.014,,781
1776408560159234828,0.002
1776408560166926618,-0.002
1776408560174618408,0.034
1776408560182310198,0.053
1776408560190001988,0.044
1776408560197693778,0.053
1776408560205385568,0.058
1776408560213077358,0.049
1776408560220769148,0.053
1776408560228460938,0.076
1776408560236152728,0.088
1776408560243844518,0.095
1776408560251536308,0.098
1776408560259228098,0.076
1776408560266919888,0.051000000000000004
1776408560274611678,0.051000000000000004
1776408560282303468,0.046
1776408560289995258,0.029
1776408560297687048,0.034
1776408560305378838,0.051000000000000004
1776408560313070628,0.051000000000000004
1776408560320762418,0.044
1776408560328454208,0.058
1776408560336145998,0.198
1776408560343837788,0.669
1776408560351529578,1.371
1776408560359221368,1.312
1776408560366913158,-0.264
1776408560374604948,-1.796
1776408560382296738,-1.54
1776408560389988528,-0.637
1776408560397680318,-0.343
1776408560405372108,-0.078
1776408560413063898,0.272
1776408560420755688,0.269
1776408560428447478,0.191
1776408560436139268,0.269
1776408560443831058,0.306
1776408560451522848,0.28200000000000003
1776408560459214638,0.294
1776408560466906428,0.309
1776408560474598218,0.304
1776408560482290008,0.311
1776408560489981798,0.318
1776408560497673588,0.314
1776408560505365378,0.314
1776408560513057168,0.341
1776408560520748958,0.377
1776408560528440748,0.377
1776408560536132538,0.37
1776408560543824328,0.392
1776408560551516118,0.40900000000000003
1776408560559207920,0.41400000000000003,82
1776408560566899710,0.417
1776408560574591500,0.40900000000000003
1776408560582283290,0.399
1776408560589975080,0.372
1776408560597666870,0.321
1776408560605358660,0.289
1776408560613050450,0.264
1776408560620742240,0.201
1776408560628434030,0.139
1776408560636125820,0.115
1776408560643817610,0.08
1776408560651509400,0.017
1776408560659201190,-0.012
1776408560666892980,-0.004
1776408560674584770,-0.014
1776408560682276560,-0.029
1776408560689968350,-0.019
1776408560697660140,-0.014
1776408560705351930,-0.019
1776408560713043720,-0.002
1776408560720735510,0.019
1776408560728427300,0.022
1776408560736119090,0.029
1776408560743810880,0.041
1776408560751502670,0.046
1776408560759194460,0.036000000000000004
1776408560766886250,0.017
1776408560774578040,0.022
1776408560782269830,0.044
1776408560789961620,0.034
1776408560797653410,0.012
1776408560805345200,0.009000000000000001
1776408560813036990,0.007
1776408560820728780,0.004
1776408560828420570,0.004
1776408560836112360,-0.002
1776408560843804150,-0.012
1776408560851495940,-0.012
1776408560859187730,-0.009000000000000001
1776408560866879520,0.002
1776408560874571310,0.017
1776408560882263100,0.012
1776408560889954890,0.0
1776408560897646680,0.004
1776408560905338470,0.009000000000000001
1776408560913030260,0.009000000000000001
1776408560920722050,0.022,,771
1776408560928413840,0.026000000000000002
1776408560936105630,0.026000000000000002
1776408560943797420,0.034
1776408560951489210,0.041
1776408560959181000,0.036000000000000004
1776408560966872790,0.034
1776408560974564580,0.036000000000000004
1776408560982256370,0.039
1776408560989948160,0.029
1776408560997639950,0.034
1776408561005331740,0.058
1776408561013023530,0.073
1776408561020715320,0.07100000000000001
1776408561028407110,0.073
1776408561036098900,0.073
1776408561043790690,0.08
1776408561051482480,0.105
1776408561059174270,0.117
1776408561066866060,0.115
1776408561074557850,0.115
1776408561082249640,0.1
1776408561089941430,0.08
1776408561097633220,0.073
1776408561105325010,0.058
1776408561113016800,0.044
1776408561120708602,0.058
1776408561128400392,0.076
1776408561136092182,0.078
1776408561143783972,0.08
1776408561151475762,0.112
1776408561159167552,0.39
1776408561166859342,1.096
1776408561174551132,1.585
1776408561182242922,0.672
1776408561189934712,-1.194
1776408561197626502,-1.852
1776408561205318292,-0.983
1776408561213010082,-0.34800000000000003
1776408561220701872,-0.184
1776408561228393662,0.154
1776408561236085452,0.301
1776408561243777242,0.196
1776408561251469032,0.24
1776408561259160822,0.318
1776408561266852612,0.28200000000000003
1776408561274544402,0.277
1776408561282236192,0.301
1776408561289927982,0.289
1776408561297619772,0.28700000000000003
1776408561305311562,0.301
1776408561313003352,0.309
1776408561320695142,0.301
1776408561328386932,0.306
1776408561336078722,0.331
1776408561343770512,0.338
1776408561351462302,0.336
1776408561359154092,0.353
1776408561366845882,0.382
1776408561374537672,0.402
1776408561382229462,0.399
1776408561389921252,0.392
1776408561397613042,0.385
1776408561405304832,0.375
1776408561412996622,0.358
1776408561420688412,0.311
1776408561428380202,0.257
1776408561436071992,0.24
1776408561443763782,0.20800000000000002
1776408561451455572,0.137
1776408561459147362,0.085
1776408561466839152,0.066
1776408561474530942,0.039
1776408561482222732,0.014
1776408561489914522,0.0
1776408561497606312,-0.007
1776408561505298102,-0.002
1776408561512989892,-0.002
1776408561520681682,-0.014
1776408561528373472,-0.007
1776408561536065262,0.014
1776408561543757052,0.019
1776408561551448842,0.017
1776408561559140632,0.026000000000000002
1776408561566832422,0.036000000000000004
1776408561574524212,0.034
1776408561582216002,0.024
1776408561589907792,0.029
1776408561597599582,0.036000000000000004
1776408561605291372,0.031
1776408561612983162,0.034
1776408561620674952,0.039
1776408561628366742,0.029
1776408561636058532,0.022
1776408561643750322,0.024
1776408561651442112,0.009000000000000001
1776408561659133902,0.004
1776408561666825692,0.014
1776408561674517482,0.019,,752
1776408561682209284,0.029,81
1776408561689900934,0.029
1776408561697592584,0.017
1776408561705284234,0.031
1776408561712975884,0.046
1776408561720667534,0.031
1776408561728359184,0.022
1776408561736050834,0.026000000000000002
1776408561743742484,0.029
1776408561751434134,0.029
1776408561759125784,0.039
1776408561766817434,0.046
1776408561774509084,0.034
1776408561782200734,0.022
1776408561789892384,0.019
1776408561797584034,0.009000000000000001
1776408561805275684,0.012
1776408561812967334,0.029
1776408561820658984,0.026000000000000002
1776408561828350634,0.014
1776408561836042284,0.022
1776408561843733934,0.029
1776408561851425584,0.044
1776408561859117234,0.051000000000000004
1776408561866808884,0.044
1776408561874500534,0.041
1776408561882192184,0.044
1776408561889883834,0.053
1776408561897575484,0.076
1776408561905267134,0.085
1776408561912958784,0.08
1776408561920650434,0.078
1776408561928342084,0.093
1776408561936033734,0.1
1776408561943725384,0.085
1776408561951417034,0.073
1776408561959108684,0.058
1776408561966800334,0.039
1776408561974491984,0.046
1776408561982183634,0.073
1776408561989875284,0.078
1776408561997566934,0.061
1776408562005258584,0.095
1776408562012950234,0.36
1776408562020641884,0.988
1776408562028333534,1.474
1776408562036025184,0.718
1776408562043716834,-1.05
1776408562051408484,-1.7830000000000001
1776408562059100134,-1.008
1776408562066791784,-0.377
1776408562074483434,-0.196
1776408562082175084,0.139
1776408562089866734,0.291
1776408562097558384,0.188
1776408562105250034,0.218
1776408562112941684,0.301
1776408562120633334,0.274
1776408562128324984,0.262
1776408562136016634,0.296
1776408562143708284,0.299
1776408562151399934,0.294
1776408562159091584,0.299
1776408562166783234,0.294
1776408562174474884,0.299
1776408562182166534,0.318
1776408562189858184,0.326
1776408562197549834,0.336
1776408562205241484,0.35000000000000003
1776408562212933134,0.353
1776408562220624784,0.365
1776408562228316434,0.392
1776408562236008084,0.387
1776408562243699792,0.372
1776408562251391303,0.377
1776408562259082814,0.368
1776408562266774325,0.331
1776408562274465836,0.28400000000000003
1776408562282157347,0.23800000000000002
1776408562289848858,0.186
1776408562297540369,0.125
1776408562305231880,0.085
1776408562312923391,0.058
1776408562320614902,0.034
1776408562328306413,0.017
1776408562335997924,0.002
1776408562343689435,-0.026000000000000002
1776408562351380946,-0.07100000000000001
1776408562359072457,-0.08
1776408562366763968,-0.061
1776408562374455479,-0.063
1776408562382146990,-0.053
1776408562389838501,-0.014
1776408562397530012,-0.009000000000000001
1776408562405221523,-0.024
1776408562412913034,-0.009000000000000001
1776408562420604545,0.009000000000000001
1776408562428296056,0.007
1776408562435987567,0.014
1776408562443679078,0.029
1776408562451370589,0.017
1776408562459062100,0.007
1776408562466753611,0.024
1776408562474445122,0.039
1776408562482136633,0.026000000000000002
1776408562489828144,0.007
1776408562497519655,0.019
1776408562505211166,0.039
1776408562512902677,0.012
1776408562520594188,-0.007
1776408562528285699,0.017
1776408562535977210,0.029
1776408562543668721,0.024,,868
1776408562551360232,0.009000000000000001
1776408562559051743,-0.017
1776408562566743254,0.0
1776408562574434765,0.046
1776408562582126276,0.041
1776408562589817787,0.024
1776408562597509298,0.036000000000000004
1776408562605200809,0.022
1776408562612892320,0.002
1776408562620583831,0.039
1776408562628275342,0.068
1776408562635966853,0.034
1776408562643658364,0.024
1776408562651349875,0.051000000000000004
1776408562659041386,0.049
1776408562666732897,0.041
1776408562674424408,0.039
1776408562682115919,0.051000000000000004
1776408562689807430,0.073
1776408562697498941,0.063
1776408562705190452,0.056
1776408562712881963,0.078
1776408562720573474,0.076
1776408562728264985,0.061
1776408562735956496,0.093
1776408562743648007,0.117
1776408562751339518,0.105
1776408562759031029,0.105
1776408562766722540,0.105
1776408562774414051,0.08
1776408562782105562,0.061
1776408562789797073,0.051000000000000004
1776408562797488584,0.044
1776408562805180130,0.039,81
1776408562812871920,0.046
1776408562820563710,0.068
1776408562828255500,0.073
1776408562835947290,0.179
1776408562843639080,0.65
1776408562851330870,1.344
1776408562859022660,1.231
1776408562866714450,-0.34800000000000003
1776408562874406240,-1.778
1776408562882098030,-1.469
1776408562889789820,-0.64
1776408562897481610,-0.377
1776408562905173400,-0.066
1776408562912865190,0.279
1776408562920556980,0.247
1776408562928248770,0.198
1776408562935940560,0.296
1776408562943632350,0.294
1776408562951324140,0.257
1776408562959015930,0.299
1776408562966707720,0.311
1776408562974399510,0.299
1776408562982091300,0.299
1776408562989783090,0.291
1776408562997474880,0.309
1776408563005166670,0.338
1776408563012858460,0.333
1776408563020550250,0.336
1776408563028242040,0.358
1776408563035933830,0.368
1776408563043625620,0.382
1776408563051317410,0.392
1776408563059009200,0.38
1776408563066700990,0.38
1776408563074392780,0.387
1776408563082084570,0.365
1776408563089776360,0.331
1776408563097468150,0.291
1776408563105159940,0.245
1776408563112851730,0.213
1776408563120543520,0.191
1776408563128235310,0.13
1776408563135927100,0.063
1776408563143618890,0.036000000000000004
1776408563151310680,0.024
1776408563159002470,-0.002
1776408563166694260,-0.004
1776408563174386050,-0.002
1776408563182077840,-0.022
1776408563189769630,-0.039
1776408563197461420,-0.036000000000000004
1776408563205153210,-0.017
1776408563212845000,0.0
1776408563220536790,0.002
1776408563228228580,0.009000000000000001
1776408563235920370,0.022
1776408563243612160,0.022
1776408563251303950,0.019
1776408563258995740,0.034
1776408563266687530,0.049
1776408563274379320,0.041
1776408563282071110,0.036000000000000004
1776408563289762900,0.036000000000000004
1776408563297454690,0.017
1776408563305146480,0.0
1776408563312838270,0.002
1776408563320530060,0.002
1776408563328221850,-0.004
1776408563335913640,-0.004
1776408563343605430,-0.007
1776408563351297220,-0.002,,811
1776408563358989010,0.009000000000000001
1776408563366680812,0.012,79
1776408563374372602,0.012
1776408563382064392,0.012
1776408563389756182,0.007
1776408563397447972,0.012
1776408563405139762,0.022
1776408563412831552,0.012
1776408563420523342,0.007
1776408563428215132,0.012
1776408563435906922,0.014
1776408563443598712,0.036000000000000004
1776408563451290502,0.063
1776408563458982292,0.051000000000000004
1776408563466674082,0.034
1776408563474365872,0.046
1776408563482057662,0.061
1776408563489749452,0.049
1776408563497441242,0.056
1776408563505133032,0.098
1776408563512824822,0.095
1776408563520516612,0.053
1776408563528208402,0.046
1776408563535900192,0.053
1776408563543591982,0.039
1776408563551283772,0.034
1776408563558975562,0.041
1776408563566667352,0.046
1776408563574359142,0.026000000000000002
1776408563582050932,0.053
1776408563589742722,0.309
1776408563597434512,0.932
1776408563605126302,1.506
1776408563612818092,0.902
1776408563620509882,-0.917
1776408563628201672,-1.8960000000000001
1776408563635893462,-1.202
1776408563643585252,-0.493
1776408563651277042,-0.28700000000000003
1776408563658968832,0.08
1776408563666660622,0.321
1776408563674352412,0.228
1776408563682044202,0.228
1776408563689735992,0.314
1776408563697427782,0.289
1776408563705119572,0.272
1776408563712811362,0.296
1776408563720503152,0.299
1776408563728194942,0.306
1776408563735886732,0.309
1776408563743578522,0.301
1776408563751270312,0.311
1776408563758962102,0.318
1776408563766653892,0.328
1776408563774345682,0.368
1776408563782037472,0.385
1776408563789729262,0.368
1776408563797421052,0.382
1776408563805112842,0.399
1776408563812804632,0.375
1776408563820496422,0.358
1776408563828188212,0.382
1776408563835880002,0.385
1776408563843571792,0.343
1776408563851263582,0.289
1776408563858955372,0.242
1776408563866647162,0.188
1776408563874338952,0.132
1776408563882030742,0.112
1776408563889722532,0.1
1776408563897414322,0.051000000000000004
1776408563905106112,0.012
1776408563912797902,-0.007
1776408563920489692,-0.022
1776408563928181494,-0.022
1776408563935873284,-0.026000000000000002
1776408563943565074,-0.031
1776408563951256864,-0.017
1776408563958948654,-0.007
1776408563966640444,-0.017
1776408563974332234,-0.014
1776408563982024024,0.002
1776408563989715814,0.002
1776408563997407604,0.0
1776408564005099394,0.007
1776408564012791184,0.012
1776408564020482974,0.0
1776408564028174764,-0.004
1776408564035866554,0.007
1776408564043558344,0.009000000000000001
1776408564051250134,0.0
1776408564058941924,0.0
1776408564066633714,0.002
1776408564074325504,-0.004
1776408564082017294,-0.012
1776408564089709084,-0.009000000000000001
1776408564097400874,-0.004
1776408564105092664,0.0
1776408564112784454,-0.004
1776408564120476244,-0.002
1776408564128168034,0.012
1776408564135859824,0.014
1776408564143551614,0.012
1776408564151243404,0.019
1776408564158935194,0.022
1776408564166626984,0.014,,819
1776408564174318774,0.007
1776408564182010564,0.014
1776408564189702354,0.036000000000000004
1776408564197394144,0.049
1776408564205085934,0.044
1776408564212777724,0.041
1776408564220469514,0.044
1776408564228161304,0.044
1776408564235853094,0.046
1776408564243544884,0.051000000000000004
1776408564251236674,0.053
1776408564258928464,0.058
1776408564266620254,0.068
1776408564274312044,0.061
1776408564282003834,0.051000000000000004
1776408564289695624,0.073
1776408564297387414,0.105
1776408564305079204,0.11
1776408564312770994,0.093
1776408564320462784,0.078
1776408564328154574,0.068
1776408564335846364,0.053
1776408564343538154,0.036000000000000004
1776408564351229944,0.039
1776408564358921734,0.039
1776408564366613524,0.031
1776408564374305314,0.031
1776408564381997104,0.053
1776408564389688894,0.095
1776408564397380684,0.272
1776408564405072474,0.8310000000000001
1776408564412764264,1.469
1776408564420456054,1.037
1776408564428147844,-0.709
1776408564435839634,-1.84
1776408564443531424,-1.2530000000000001
1776408564451223214,-0.466
1776408564458915004,-0.24
1776408564466606794,0.056
1776408564474298584,0.28400000000000003
1776408564481990374,0.211
1776408564489682176,0.20800000000000002,78
1776408564497373966,0.301
1776408564505065756,0.291
1776408564512757546,0.267
1776408564520449336,0.294
1776408564528141126,0.291
1776408564535832916,0.267
1776408564543524706,0.28400000000000003
1776408564551216496,0.299
1776408564558908286,0.28700000000000003
1776408564566600076,0.28700000000000003
1776408564574291866,0.314
1776408564581983656,0.341
1776408564589675446,0.338
1776408564597367236,0.336
1776408564605059026,0.358
1776408564612750816,0.382
1776408564620442606,0.387
1776408564628134396,0.382
1776408564635826186,0.38
1776408564643517976,0.372
1776408564651209766,0.333
1776408564658901556,0.294
1776408564666593346,0.274
1776408564674285136,0.23500000000000001
1776408564681976926,0.169
1776408564689668716,0.122
1776408564697360506,0.11
1776408564705052296,0.085
1776408564712744086,0.039
1776408564720435876,0.017
1776408564728127666,0.012
1776408564735819456,0.004
1776408564743511246,0.0
1776408564751203036,0.004
1776408564758894826,0.012
1776408564766586616,0.012
1776408564774278406,0.002
1776408564781970196,0.007
1776408564789661986,0.017
1776408564797353776,0.017
1776408564805045566,0.012
1776408564812737356,0.012
1776408564820429146,0.009000000000000001
1776408564828120936,-0.004
1776408564835812726,-0.017
1776408564843504516,-0.012
1776408564851196306,0.0
1776408564858888096,0.002
1776408564866579886,-0.009000000000000001
1776408564874271676,-0.014
1776408564881963466,-0.012
1776408564889655256,-0.012
1776408564897347046,-0.012
1776408564905038836,-0.009000000000000001
1776408564912730626,-0.007
1776408564920422416,-0.007
1776408564928114206,-0.014
1776408564935805996,-0.007
1776408564943497786,0.002
1776408564951189576,-0.002
1776408564958881366,0.0
1776408564966573156,0.009000000000000001
1776408564974264946,0.012
1776408564981956736,0.009000000000000001
1776408564989648526,0.017
1776408564997340316,0.024
1776408565005032106,0.022
1776408565012723896,0.017
1776408565020415686,0.024,,854
1776408565028107476,0.024
1776408565035799266,0.024
1776408565043491056,0.029
1776408565051182858,0.036000000000000004
1776408565058874648,0.044
1776408565066566438,0.044
1776408565074258228,0.041
1776408565081950018,0.046
1776408565089641808,0.061
1776408565097333598,0.073
1776408565105025388,0.083
1776408565112717178,0.095
1776408565120408968,0.105
1776408565128100758,0.10300000000000001
1776408565135792548,0.073
1776408565143484338,0.041
1776408565151176128,0.036000000000000004
1776408565158867918,0.046
1776408565166559708,0.049
1776408565174251498,0.053
1776408565181943288,0.063
1776408565189635078,0.061
1776408565197326868,0.1
1776408565205018658,0.36
