UNIX Timestamp,ECG,HR,RR,Marker,time,norm_time
1787890092331561802,0.039,92.0,711.0,,1787890092331561802,0.0
1787890092339257842,-0.092,,,,1787890092339257842,0.000769604
1787890092346953882,-0.184,,,,1787890092346953882,0.001539208
1787890092354649922,-0.207,,,,1787890092354649922,0.002308812
1787890092362345962,-0.249,,,,1787890092362345962,0.003078416
1787890092370042002,-0.316,,,,1787890092370042002,0.00384802
1787890092377738042,-0.339,,,,1787890092377738042,0.004617624
1787890092385434082,-0.319,,,,1787890092385434082,0.005387228
1787890092393130122,-0.299,,,,1787890092393130122,0.006156832
1787890092400826162,-0.286,,,,1787890092400826162,0.006926436
1787890092408522202,-0.274,,,,1787890092408522202,0.00769604
1787890092416218242,-0.276,,,,1787890092416218242,0.008465644
1787890092423914282,-0.286,,,,1787890092423914282,0.009235248
1787890092431610322,-0.256,,,,1787890092431610322,0.010004852
1787890092439306362,-0.217,,,,1787890092439306362,0.010774456
1787890092447002402,-0.231,,,,1787890092447002402,0.01154406
1787890092454698442,-0.229,,,,1787890092454698442,0.012313664
1787890092462394482,-0.192,,,,1787890092462394482,0.013083268
1787890092470090522,-0.209,,,,1787890092470090522,0.013852872
1787890092477786562,-0.219,,,,1787890092477786562,0.014622476
1787890092485482602,-0.189,,,,1787890092485482602,0.01539208
1787890092493178642,-0.204,,,,1787890092493178642,0.016161684
1787890092500874682,-0.221,,,,1787890092500874682,0.016931288
1787890092508570722,-0.187,,,,1787890092508570722,0.017700892
1787890092516266762,-0.179,,,,1787890092516266762,0.018470496
1787890092523962802,-0.192,,,,1787890092523962802,0.0192401
1787890092531658842,-0.169,,,,1787890092531658842,0.020009704
1787890092539354882,-0.159,,,,1787890092539354882,0.020779308
1787890092547050922,-0.194,,,,1787890092547050922,0.021548912
1787890092554746962,-0.187,,,,1787890092554746962,0.022318516
1787890092562443002,-0.149,,,,1787890092562443002,0.02308812
1787890092570139042,-0.164,,,,1787890092570139042,0.023857724
1787890092577835082,-0.197,,,,1787890092577835082,0.024627328
1787890092585531122,-0.172,,,,1787890092585531122,0.025396932
1787890092593227162,-0.147,,,,1787890092593227162,0.026166536
1787890092600923202,-0.179,,,,1787890092600923202,0.02693614
1787890092608619242,-0.157,,,,1787890092608619242,0.027705744
1787890092616315282,-0.094,,,,1787890092616315282,0.028475348
1787890092624011322,-0.112,,,,1787890092624011322,0.029244952
1787890092631707362,-0.134,,,,1787890092631707362,0.030014556
1787890092639403402,-0.107,,,,1787890092639403402,0.03078416
1787890092647099442,-0.112,,,,1787890092647099442,0.031553764
1787890092654795482,-0.149,,,,1787890092654795482,0.032323368
1787890092662491522,-0.147,,,,1787890092662491522,0.033092972
1787890092670187562,-0.129,,,,1787890092670187562,0.033862576
1787890092677883602,-0.139,,,,1787890092677883602,0.03463218
1787890092685579642,-0.144,,,,1787890092685579642,0.035401784
1787890092693275682,-0.124,,,,1787890092693275682,0.036171388
1787890092700971722,-0.102,,,,1787890092700971722,0.036940992
1787890092708667762,-0.084,,,,1787890092708667762,0.037710596
1787890092716363802,-0.077,,,,1787890092716363802,0.0384802
1787890092724059842,-0.072,,,,1787890092724059842,0.039249804
1787890092731755882,0.084,,,,1787890092731755882,0.040019408
1787890092739451922,0.508,,,,1787890092739451922,0.040789012
1787890092747147962,0.646,,,,1787890092747147962,0.041558616
1787890092754844002,0.112,,,,1787890092754844002,0.04232822
1787890092762540042,-0.481,,,,1787890092762540042,0.043097824
1787890092770236082,-0.538,,,,1787890092770236082,0.043867428
1787890092777932122,-0.204,,,,1787890092777932122,0.044637032
1787890092785628162,-0.044,,,,1787890092785628162,0.045406636
1787890092793324202,-0.097,,,,1787890092793324202,0.04617624
1787890092801020242,-0.047,,,,1787890092801020242,0.046945844
1787890092808716282,0.004,,,,1787890092808716282,0.047715448
1787890092816412322,-0.029,,,,1787890092816412322,0.048485052
1787890092824108362,-0.017,,,,1787890092824108362,0.049254656
1787890092831804402,0.029,,,,1787890092831804402,0.05002426
1787890092839500442,0.004,,,,1787890092839500442,0.050793864
1787890092847196482,-0.007,,,,1787890092847196482,0.051563468
1787890092854892522,0.072,,,,1787890092854892522,0.052333072
1787890092862588562,0.104,,,,1787890092862588562,0.053102676
1787890092870284602,0.052,,,,1787890092870284602,0.05387228
1787890092877980642,0.054,,,,1787890092877980642,0.054641884
1787890092885676682,0.127,,,,1787890092885676682,0.055411488
1787890092893372750,0.164,,,,1787890092893372750,0.0561810948
1787890092901069208,0.147,,,,1787890092901069208,0.0569507406
1787890092908765666,0.157,,,,1787890092908765666,0.0577203864
1787890092916462124,0.202,,,,1787890092916462124,0.0584900322
1787890092924158582,0.229,,,,1787890092924158582,0.059259678
1787890092931855040,0.254,,,,1787890092931855040,0.0600293238
1787890092939551498,0.281,,,,1787890092939551498,0.0607989696
1787890092947247956,0.266,,,,1787890092947247956,0.0615686154
1787890092954944414,0.241,,,,1787890092954944414,0.0623382612
1787890092962640872,0.231,,,,1787890092962640872,0.063107907
1787890092970337330,0.177,,,,1787890092970337330,0.0638775528
1787890092978033788,0.089,,,,1787890092978033788,0.0646471986
1787890092985730246,0.029,,,,1787890092985730246,0.0654168444
1787890092993426704,-0.047,,,,1787890092993426704,0.0661864902
1787890093001123162,-0.149,,,,1787890093001123162,0.066956136
1787890093008819620,-0.209,,,,1787890093008819620,0.0677257818
1787890093016516078,-0.244,,,,1787890093016516078,0.0684954276
1787890093024212536,-0.274,,,,1787890093024212536,0.0692650734
1787890093031908994,-0.271,,,,1787890093031908994,0.0700347192
1787890093039605452,-0.261,,,,1787890093039605452,0.070804365
1787890093047301910,-0.279,,,,1787890093047301910,0.0715740108
1787890093054998368,-0.276,,,,1787890093054998368,0.0723436566
1787890093062694826,-0.249,,,,1787890093062694826,0.0731133024
1787890093070391284,-0.246,,,,1787890093070391284,0.0738829482
1787890093078087742,-0.249,,,,1787890093078087742,0.074652594
1787890093085784200,-0.236,,,,1787890093085784200,0.0754222398
1787890093093480658,-0.214,,,,1787890093093480658,0.0761918856
1787890093101177116,-0.204,,,,1787890093101177116,0.0769615314
1787890093108873574,-0.197,,,,1787890093108873574,0.0777311772
1787890093116570032,-0.189,,,,1787890093116570032,0.078500823
1787890093124266490,-0.207,,,,1787890093124266490,0.0792704688
1787890093131962948,-0.207,,,,1787890093131962948,0.0800401146
1787890093139659406,-0.192,,,,1787890093139659406,0.0808097604
1787890093147355864,-0.199,,,,1787890093147355864,0.0815794062
1787890093155052322,-0.199,,,,1787890093155052322,0.082349052
1787890093162748780,-0.184,,,,1787890093162748780,0.0831186978
1787890093170445238,-0.194,,,,1787890093170445238,0.0838883436
1787890093178141696,-0.194,,,,1787890093178141696,0.0846579894
1787890093185838154,-0.172,,,,1787890093185838154,0.0854276352
1787890093193534612,-0.164,,,,1787890093193534612,0.086197281
1787890093201231070,-0.152,,,,1787890093201231070,0.0869669268
1787890093208927528,-0.142,,,,1787890093208927528,0.0877365726
1787890093216623986,-0.164,,,,1787890093216623986,0.0885062184
1787890093224320444,-0.167,,,,1787890093224320444,0.0892758642
1787890093232016902,-0.157,,,,1787890093232016902,0.09004551
1787890093239713360,-0.172,,,,1787890093239713360,0.0908151558
1787890093247409818,-0.162,,,,1787890093247409818,0.0915848016
1787890093255106276,-0.144,,,,1787890093255106276,0.0923544474
1787890093262802734,-0.147,,,,1787890093262802734,0.0931240932
1787890093270499192,-0.134,,,,1787890093270499192,0.093893739
1787890093278195650,-0.122,,,,1787890093278195650,0.0946633848
1787890093285892108,-0.129,,,,1787890093285892108,0.0954330306
1787890093293588566,-0.107,,,,1787890093293588566,0.0962026764
1787890093301285024,-0.087,,,,1787890093301285024,0.0969723222
1787890093308981482,-0.122,,,,1787890093308981482,0.097741968
1787890093316677940,-0.152,,,,1787890093316677940,0.0985116138
1787890093324374398,-0.137,,,,1787890093324374398,0.0992812596
1787890093332070856,-0.132,,,,1787890093332070856,0.1000509054
1787890093339767314,-0.124,,,,1787890093339767314,0.1008205512
1787890093347463772,-0.102,,,,1787890093347463772,0.101590197
1787890093355160230,-0.114,,,,1787890093355160230,0.1023598428
1787890093362856688,-0.154,,,,1787890093362856688,0.1031294886
1787890093370553146,-0.152,,,,1787890093370553146,0.1038991344
1787890093378249604,-0.114,,,,1787890093378249604,0.1046687802
1787890093385946062,-0.102,,,,1787890093385946062,0.105438426
1787890093393642520,0.0,,,,1787890093393642520,0.1062080718
1787890093401338978,0.411,,,,1787890093401338978,0.1069777176
1787890093409035436,0.763,,,,1787890093409035436,0.1077473634
1787890093416731894,0.406,,,,1787890093416731894,0.1085170092
1787890093424428352,-0.301,,,,1787890093424428352,0.109286655
1787890093432124810,-0.591,,,,1787890093432124810,0.1100563008
1787890093439821268,-0.364,,,,1787890093439821268,0.1108259466
1787890093447517726,-0.094,,,,1787890093447517726,0.1115955924
1787890093455214216,-0.072,90.0,702.0,,1787890093455214216,0.1123652414
1787890093462910256,-0.082,,666.0,,1787890093462910256,0.1131348454
1787890093470606296,-0.029,,,,1787890093470606296,0.1139044494
1787890093478302336,-0.009,,,,1787890093478302336,0.1146740534
1787890093485998376,0.007,,,,1787890093485998376,0.1154436574
1787890093493694416,0.014,,,,1787890093493694416,0.1162132614
1787890093501390456,0.004,,,,1787890093501390456,0.1169828654
1787890093509086496,0.029,,,,1787890093509086496,0.1177524694
1787890093516782536,0.059,,,,1787890093516782536,0.1185220734
1787890093524478576,0.069,,,,1787890093524478576,0.1192916774
1787890093532174616,0.089,,,,1787890093532174616,0.1200612814
1787890093539870656,0.114,,,,1787890093539870656,0.1208308854
1787890093547566696,0.129,,,,1787890093547566696,0.1216004894
1787890093555262736,0.152,,,,1787890093555262736,0.1223700934
1787890093562958776,0.177,,,,1787890093562958776,0.1231396974
1787890093570654816,0.189,,,,1787890093570654816,0.1239093014
1787890093578350856,0.204,,,,1787890093578350856,0.1246789054
1787890093586046896,0.231,,,,1787890093586046896,0.1254485094
1787890093593742936,0.254,,,,1787890093593742936,0.1262181134
1787890093601438976,0.269,,,,1787890093601438976,0.1269877174
1787890093609135016,0.261,,,,1787890093609135016,0.1277573214
1787890093616831056,0.236,,,,1787890093616831056,0.1285269254
1787890093624527096,0.207,,,,1787890093624527096,0.1292965294
1787890093632223136,0.177,,,,1787890093632223136,0.1300661334
1787890093639919176,0.144,,,,1787890093639919176,0.1308357374
1787890093647615216,0.077,,,,1787890093647615216,0.1316053414
1787890093655311256,-0.027,,,,1787890093655311256,0.1323749454
1787890093663007296,-0.092,,,,1787890093663007296,0.1331445494
1787890093670703336,-0.129,,,,1787890093670703336,0.1339141534
1787890093678399376,-0.199,,,,1787890093678399376,0.1346837574
1787890093686095416,-0.251,,,,1787890093686095416,0.1354533614
1787890093693791456,-0.236,,,,1787890093693791456,0.1362229654
1787890093701487496,-0.224,,,,1787890093701487496,0.1369925694
1787890093709183536,-0.249,,,,1787890093709183536,0.1377621734
1787890093716879576,-0.246,,,,1787890093716879576,0.1385317774
1787890093724575616,-0.219,,,,1787890093724575616,0.1393013814
1787890093732271656,-0.212,,,,1787890093732271656,0.1400709854
1787890093739967696,-0.212,,,,1787890093739967696,0.1408405894
1787890093747663736,-0.212,,,,1787890093747663736,0.1416101934
1787890093755359776,-0.214,,,,1787890093755359776,0.1423797974
1787890093763055816,-0.199,,,,1787890093763055816,0.1431494014
1787890093770751856,-0.179,,,,1787890093770751856,0.1439190054
1787890093778447896,-0.174,,,,1787890093778447896,0.1446886094
1787890093786143936,-0.177,,,,1787890093786143936,0.1454582134
1787890093793839976,-0.182,,,,1787890093793839976,0.1462278174
1787890093801536016,-0.184,,,,1787890093801536016,0.1469974214
1787890093809232056,-0.177,,,,1787890093809232056,0.1477670254
1787890093816928096,-0.174,,,,1787890093816928096,0.1485366294
1787890093824624136,-0.189,,,,1787890093824624136,0.1493062334
1787890093832320176,-0.189,,,,1787890093832320176,0.1500758374
1787890093840016216,-0.169,,,,1787890093840016216,0.1508454414
1787890093847712256,-0.162,,,,1787890093847712256,0.1516150454
1787890093855408296,-0.164,,,,1787890093855408296,0.1523846494
1787890093863104336,-0.159,,,,1787890093863104336,0.1531542534
1787890093870800376,-0.149,,,,1787890093870800376,0.1539238574
1787890093878496416,-0.134,,,,1787890093878496416,0.1546934614
1787890093886192456,-0.132,,,,1787890093886192456,0.1554630654
1787890093893888496,-0.134,,,,1787890093893888496,0.1562326694
1787890093901584536,-0.129,,,,1787890093901584536,0.1570022734
1787890093909280576,-0.119,,,,1787890093909280576,0.1577718774
1787890093916976616,-0.109,,,,1787890093916976616,0.1585414814
1787890093924672656,-0.112,,,,1787890093924672656,0.1593110854
1787890093932368696,-0.122,,,,1787890093932368696,0.1600806894
1787890093940064736,-0.099,,,,1787890093940064736,0.1608502934
1787890093947760776,-0.069,,,,1787890093947760776,0.1616198974
1787890093955456816,-0.067,,,,1787890093955456816,0.1623895014
1787890093963152856,-0.069,,,,1787890093963152856,0.1631591054
1787890093970848896,-0.057,,,,1787890093970848896,0.1639287094
1787890093978544936,-0.054,,,,1787890093978544936,0.1646983134
1787890093986240976,-0.074,,,,1787890093986240976,0.1654679174
1787890093993937016,-0.084,,,,1787890093993937016,0.1662375214
1787890094001633056,-0.074,,,,1787890094001633056,0.1670071254
1787890094009329096,-0.067,,,,1787890094009329096,0.1677767294
1787890094017025164,-0.074,,,,1787890094017025164,0.1685463362
1787890094024721622,-0.069,,,,1787890094024721622,0.169315982
1787890094032418080,-0.044,,,,1787890094032418080,0.1700856278
1787890094040114538,-0.039,,,,1787890094040114538,0.1708552736
1787890094047810996,-0.037,,,,1787890094047810996,0.1716249194
1787890094055507454,0.019,,,,1787890094055507454,0.1723945652
1787890094063203912,0.286,,,,1787890094063203912,0.173164211
1787890094070900370,0.728,,,,1787890094070900370,0.1739338568
1787890094078596828,0.6980000000000001,,,,1787890094078596828,0.1747035026
1787890094086293286,0.029,,,,1787890094086293286,0.1754731484
1787890094093989744,-0.501,,,,1787890094093989744,0.1762427942
1787890094101686202,-0.438,,,,1787890094101686202,0.17701244
1787890094109382660,-0.099,,,,1787890094109382660,0.1777820858
1787890094117079118,0.0,,,,1787890094117079118,0.1785517316
1787890094124775576,-0.052,,,,1787890094124775576,0.1793213774
1787890094132472034,0.024,,,,1787890094132472034,0.1800910232
1787890094140168492,0.079,,,,1787890094140168492,0.180860669
1787890094147864950,0.049,,,,1787890094147864950,0.1816303148
1787890094155561408,0.069,,,,1787890094155561408,0.1823999606
1787890094163257866,0.112,,,,1787890094163257866,0.1831696064
1787890094170954324,0.107,,,,1787890094170954324,0.1839392522
1787890094178650782,0.097,,,,1787890094178650782,0.184708898
1787890094186347240,0.117,,,,1787890094186347240,0.1854785438
1787890094194043698,0.147,,,,1787890094194043698,0.1862481896
1787890094201740156,0.159,,,,1787890094201740156,0.1870178354
1787890094209436614,0.167,,,,1787890094209436614,0.1877874812
1787890094217133072,0.187,,,,1787890094217133072,0.188557127
1787890094224829530,0.207,,,,1787890094224829530,0.1893267728
1787890094232525988,0.224,,,,1787890094232525988,0.1900964186
1787890094240222446,0.251,,,,1787890094240222446,0.1908660644
1787890094247918904,0.274,,,,1787890094247918904,0.1916357102
1787890094255615362,0.284,,,,1787890094255615362,0.192405356
1787890094263311820,0.301,,,,1787890094263311820,0.1931750018
1787890094271008278,0.306,,,,1787890094271008278,0.1939446476
1787890094278704736,0.284,,,,1787890094278704736,0.1947142934
1787890094286401194,0.256,,,,1787890094286401194,0.1954839392
1787890094294097652,0.226,,,,1787890094294097652,0.196253585
1787890094301794110,0.174,,,,1787890094301794110,0.1970232308
1787890094309490568,0.112,,,,1787890094309490568,0.1977928766
1787890094317187026,0.037,,,,1787890094317187026,0.1985625224
1787890094324883484,-0.039,,,,1787890094324883484,0.1993321682
1787890094332579942,-0.114,,,,1787890094332579942,0.200101814
1787890094340276400,-0.177,,,,1787890094340276400,0.2008714598
1787890094347972858,-0.224,,,,1787890094347972858,0.2016411056
1787890094355669316,-0.251,,,,1787890094355669316,0.2024107514
1787890094363365774,-0.251,,,,1787890094363365774,0.2031803972
1787890094371062232,-0.244,,,,1787890094371062232,0.203950043
1787890094378758690,-0.246,,,,1787890094378758690,0.2047196888
1787890094386455148,-0.246,,,,1787890094386455148,0.2054893346
1787890094394151606,-0.236,,,,1787890094394151606,0.2062589804
1787890094401848064,-0.224,,,,1787890094401848064,0.2070286262
1787890094409544522,-0.214,,,,1787890094409544522,0.207798272
1787890094417240980,-0.209,,,,1787890094417240980,0.2085679178
1787890094424937438,-0.194,,,,1787890094424937438,0.2093375636
1787890094432633896,-0.187,,,,1787890094432633896,0.2101072094
1787890094440330354,-0.199,,,,1787890094440330354,0.2108768552
1787890094448026812,-0.202,,,,1787890094448026812,0.211646501
1787890094455723270,-0.182,,,,1787890094455723270,0.2124161468
1787890094463419728,-0.179,,,,1787890094463419728,0.2131857926
1787890094471116186,-0.194,,,,1787890094471116186,0.2139554384
1787890094478812644,-0.182,,,,1787890094478812644,0.2147250842
1787890094486509102,-0.162,,,,1787890094486509102,0.21549473
1787890094494205560,-0.169,,,,1787890094494205560,0.2162643758
1787890094501902018,-0.169,,,,1787890094501902018,0.2170340216
1787890094509598476,-0.159,,,,1787890094509598476,0.2178036674
1787890094517294934,-0.159,,,,1787890094517294934,0.2185733132
1787890094524991392,-0.159,,,,1787890094524991392,0.219342959
1787890094532687850,-0.159,,,,1787890094532687850,0.2201126048
1787890094540384308,-0.159,,,,1787890094540384308,0.2208822506
1787890094548080766,-0.159,,,,1787890094548080766,0.2216518964
1787890094555777224,-0.152,,,,1787890094555777224,0.2224215422
1787890094563473682,-0.134,,,,1787890094563473682,0.223191188
1787890094571170140,-0.132,,,,1787890094571170140,0.2239608338
1787890094578866632,-0.139,90.0,652.0,,1787890094578866632,0.224730483
1787890094586562672,-0.142,,,,1787890094586562672,0.225500087
1787890094594258712,-0.134,,,,1787890094594258712,0.226269691
1787890094601954752,-0.104,,,,1787890094601954752,0.227039295
1787890094609650792,-0.079,,,,1787890094609650792,0.227808899
1787890094617346832,-0.089,,,,1787890094617346832,0.228578503
1787890094625042872,-0.107,,,,1787890094625042872,0.229348107
1787890094632738912,-0.122,,,,1787890094632738912,0.230117711
1787890094640434952,-0.139,,,,1787890094640434952,0.230887315
1787890094648130992,-0.132,,,,1787890094648130992,0.231656919
1787890094655827032,-0.114,,,,1787890094655827032,0.232426523
1787890094663523072,-0.119,,,,1787890094663523072,0.233196127
1787890094671219112,-0.117,,,,1787890094671219112,0.233965731
1787890094678915152,-0.099,,,,1787890094678915152,0.234735335
1787890094686611192,-0.102,,,,1787890094686611192,0.235504939
1787890094694307232,-0.094,,,,1787890094694307232,0.236274543
1787890094702003272,-0.054,,,,1787890094702003272,0.237044147
1787890094709699312,0.0,,,,1787890094709699312,0.237813751
1787890094717395352,0.217,,,,1787890094717395352,0.238583355
1787890094725091392,0.646,,,,1787890094725091392,0.239352959
1787890094732787432,0.646,,,,1787890094732787432,0.240122563
1787890094740483472,-0.074,,,,1787890094740483472,0.240892167
1787890094748179512,-0.638,,,,1787890094748179512,0.241661771
1787890094755875552,-0.488,,,,1787890094755875552,0.242431375
1787890094763571592,-0.119,,,,1787890094763571592,0.243200979
1787890094771267632,-0.069,,,,1787890094771267632,0.243970583
1787890094778963672,-0.114,,,,1787890094778963672,0.244740187
1787890094786659712,-0.022,,,,1787890094786659712,0.245509791
1787890094794355752,0.007,,,,1787890094794355752,0.246279395
1787890094802051792,-0.017,,,,1787890094802051792,0.247048999
1787890094809747832,0.012,,,,1787890094809747832,0.247818603
1787890094817443872,0.037,,,,1787890094817443872,0.248588207
1787890094825139912,0.037,,,,1787890094825139912,0.249357811
1787890094832835952,0.052,,,,1787890094832835952,0.250127415
1787890094840531992,0.069,,,,1787890094840531992,0.250897019
1787890094848228032,0.084,,,,1787890094848228032,0.251666623
1787890094855924072,0.092,,,,1787890094855924072,0.252436227
1787890094863620112,0.102,,,,1787890094863620112,0.253205831
1787890094871316152,0.122,,,,1787890094871316152,0.253975435
1787890094879012192,0.142,,,,1787890094879012192,0.254745039
1787890094886708232,0.172,,,,1787890094886708232,0.255514643
1787890094894404272,0.199,,,,1787890094894404272,0.256284247
1787890094902100312,0.219,,,,1787890094902100312,0.257053851
1787890094909796352,0.244,,,,1787890094909796352,0.257823455
1787890094917492392,0.259,,,,1787890094917492392,0.258593059
1787890094925188432,0.254,,,,1787890094925188432,0.259362663
1787890094932884472,0.231,,,,1787890094932884472,0.260132267
1787890094940580512,0.204,,,,1787890094940580512,0.260901871
1787890094948276552,0.169,,,,1787890094948276552,0.261671475
1787890094955972592,0.114,,,,1787890094955972592,0.262441079
1787890094963668632,0.042,,,,1787890094963668632,0.263210683
1787890094971364672,-0.032,,,,1787890094971364672,0.263980287
1787890094979060712,-0.122,,,,1787890094979060712,0.264749891
1787890094986756752,-0.204,,,,1787890094986756752,0.265519495
1787890094994452792,-0.249,,,,1787890094994452792,0.266289099
1787890095002148832,-0.279,,,,1787890095002148832,0.267058703
1787890095009844872,-0.309,,,,1787890095009844872,0.267828307
1787890095017540912,-0.319,,,,1787890095017540912,0.268597911
1787890095025236952,-0.316,,,,1787890095025236952,0.269367515
1787890095032932992,-0.316,,,,1787890095032932992,0.270137119
1787890095040629032,-0.304,,,,1787890095040629032,0.270906723
1787890095048325072,-0.286,,,,1787890095048325072,0.271676327
1787890095056021112,-0.284,,,,1787890095056021112,0.272445931
1787890095063717152,-0.274,,,,1787890095063717152,0.273215535
1787890095071413192,-0.234,,,,1787890095071413192,0.273985139
1787890095079109232,-0.226,,,,1787890095079109232,0.274754743
1787890095086805272,-0.246,,,,1787890095086805272,0.275524347
1787890095094501312,-0.246,,,,1787890095094501312,0.276293951
1787890095102197352,-0.231,,,,1787890095102197352,0.277063555
1787890095109893392,-0.236,,,,1787890095109893392,0.277833159
1787890095117589432,-0.239,,,,1787890095117589432,0.278602763
1787890095125285472,-0.226,,,,1787890095125285472,0.279372367
1787890095132981512,-0.224,,,,1787890095132981512,0.280141971
1787890095140677580,-0.219,,,,1787890095140677580,0.2809115778
1787890095148373829,-0.212,,,,1787890095148373829,0.2816812027
1787890095156070078,-0.217,,,,1787890095156070078,0.2824508276
1787890095163766327,-0.221,,,,1787890095163766327,0.2832204525
1787890095171462576,-0.221,,,,1787890095171462576,0.2839900774
1787890095179158825,-0.221,,,,1787890095179158825,0.2847597023
1787890095186855074,-0.214,,,,1787890095186855074,0.2855293272
1787890095194551323,-0.197,,,,1787890095194551323,0.2862989521
1787890095202247572,-0.189,,,,1787890095202247572,0.287068577
1787890095209943821,-0.189,,,,1787890095209943821,0.2878382019
1787890095217640070,-0.192,,,,1787890095217640070,0.2886078268
1787890095225336319,-0.174,,,,1787890095225336319,0.2893774517
1787890095233032568,-0.162,,,,1787890095233032568,0.2901470766
1787890095240728817,-0.164,,,,1787890095240728817,0.2909167015
1787890095248425066,-0.159,,,,1787890095248425066,0.2916863264
1787890095256121315,-0.139,,,,1787890095256121315,0.2924559513
1787890095263817564,-0.114,,,,1787890095263817564,0.2932255762
1787890095271513813,-0.104,,,,1787890095271513813,0.2939952011
1787890095279210062,-0.124,,,,1787890095279210062,0.294764826
1787890095286906311,-0.152,,,,1787890095286906311,0.2955344509
1787890095294602560,-0.142,,,,1787890095294602560,0.2963040758
1787890095302298809,-0.127,,,,1787890095302298809,0.2970737007
1787890095309995058,-0.132,,,,1787890095309995058,0.2978433256
1787890095317691307,-0.134,,,,1787890095317691307,0.2986129505
1787890095325387556,-0.127,,,,1787890095325387556,0.2993825754
1787890095333083805,-0.127,,,,1787890095333083805,0.3001522003
1787890095340780054,-0.119,,,,1787890095340780054,0.3009218252
1787890095348476303,-0.094,,,,1787890095348476303,0.3016914501
1787890095356172552,-0.077,,,,1787890095356172552,0.302461075
1787890095363868801,0.049,,,,1787890095363868801,0.3032306999
1787890095371565050,0.466,,,,1787890095371565050,0.3040003248
1787890095379261299,0.685,,,,1787890095379261299,0.3047699497
1787890095386957548,0.174,,,,1787890095386957548,0.3055395746
1787890095394653797,-0.463,,,,1787890095394653797,0.3063091995
1787890095402350046,-0.543,,,,1787890095402350046,0.3070788244
1787890095410046295,-0.241,,,,1787890095410046295,0.3078484493
1787890095417742544,-0.069,,,,1787890095417742544,0.3086180742
1787890095425438793,-0.094,,,,1787890095425438793,0.3093876991
1787890095433135042,-0.052,,,,1787890095433135042,0.310157324
1787890095440831291,0.012,,,,1787890095440831291,0.3109269489
1787890095448527540,0.002,,,,1787890095448527540,0.3116965738
1787890095456223789,0.002,,,,1787890095456223789,0.3124661987
1787890095463920038,0.029,,,,1787890095463920038,0.3132358236
1787890095471616287,0.037,,,,1787890095471616287,0.3140054485
1787890095479312536,0.044,,,,1787890095479312536,0.3147750734
1787890095487008785,0.064,,,,1787890095487008785,0.3155446983
1787890095494705034,0.069,,,,1787890095494705034,0.3163143232
1787890095502401283,0.077,,,,1787890095502401283,0.3170839481
1787890095510097532,0.114,,,,1787890095510097532,0.317853573
1787890095517793781,0.144,,,,1787890095517793781,0.3186231979
1787890095525490030,0.152,,,,1787890095525490030,0.3193928228
1787890095533186279,0.167,,,,1787890095533186279,0.3201624477
1787890095540882528,0.199,,,,1787890095540882528,0.3209320726
1787890095548578777,0.231,,,,1787890095548578777,0.3217016975
1787890095556275026,0.261,,,,1787890095556275026,0.3224713224
1787890095563971275,0.281,,,,1787890095563971275,0.3232409473
1787890095571667524,0.276,,,,1787890095571667524,0.3240105722
1787890095579363773,0.261,,,,1787890095579363773,0.3247801971
1787890095587060022,0.246,,,,1787890095587060022,0.325549822
1787890095594756271,0.219,,,,1787890095594756271,0.3263194469
1787890095602452520,0.177,,,,1787890095602452520,0.3270890718
1787890095610148769,0.109,,,,1787890095610148769,0.3278586967
1787890095617845018,0.019,,,,1787890095617845018,0.3286283216
1787890095625541267,-0.054,,,,1787890095625541267,0.3293979465
1787890095633237516,-0.117,,,,1787890095633237516,0.3301675714
1787890095640933765,-0.182,,,,1787890095640933765,0.3309371963
1787890095648630014,-0.234,,,,1787890095648630014,0.3317068212
1787890095656326263,-0.261,,,,1787890095656326263,0.3324764461
1787890095664022512,-0.271,,,,1787890095664022512,0.333246071
1787890095671718761,-0.264,,,,1787890095671718761,0.3340156959
1787890095679415010,-0.256,,,,1787890095679415010,0.3347853208
1787890095687111259,-0.254,,,,1787890095687111259,0.3355549457
1787890095694807508,-0.241,,,,1787890095694807508,0.3363245706
1787890095702503786,-0.224,90.0,665.0,,1787890095702503786,0.3370941984
1787890095710200035,-0.224,,665.0,,1787890095710200035,0.3378638233
1787890095717896284,-0.226,,,,1787890095717896284,0.3386334482
1787890095725592533,-0.209,,,,1787890095725592533,0.3394030731
1787890095733288782,-0.187,,,,1787890095733288782,0.340172698
1787890095740985031,-0.192,,,,1787890095740985031,0.3409423229
1787890095748681280,-0.194,,,,1787890095748681280,0.3417119478
1787890095756377529,-0.187,,,,1787890095756377529,0.3424815727
1787890095764073778,-0.177,,,,1787890095764073778,0.3432511976
1787890095771770027,-0.169,,,,1787890095771770027,0.3440208225
1787890095779466276,-0.179,,,,1787890095779466276,0.3447904474
1787890095787162525,-0.192,,,,1787890095787162525,0.3455600723
1787890095794858774,-0.189,,,,1787890095794858774,0.3463296972
1787890095802555023,-0.179,,,,1787890095802555023,0.3470993221
1787890095810251272,-0.172,,,,1787890095810251272,0.347868947
1787890095817947521,-0.172,,,,1787890095817947521,0.3486385719
1787890095825643770,-0.174,,,,1787890095825643770,0.3494081968
1787890095833340019,-0.164,,,,1787890095833340019,0.3501778217
1787890095841036268,-0.157,,,,1787890095841036268,0.3509474466
1787890095848732517,-0.154,,,,1787890095848732517,0.3517170715
1787890095856428766,-0.149,,,,1787890095856428766,0.3524866964
1787890095864125015,-0.139,,,,1787890095864125015,0.3532563213
1787890095871821264,-0.137,,,,1787890095871821264,0.3540259462
1787890095879517513,-0.139,,,,1787890095879517513,0.3547955711
1787890095887213762,-0.134,,,,1787890095887213762,0.355565196
1787890095894910011,-0.132,,,,1787890095894910011,0.3563348209
1787890095902606260,-0.132,,,,1787890095902606260,0.3571044458
1787890095910302509,-0.104,,,,1787890095910302509,0.3578740707
1787890095917998758,-0.074,,,,1787890095917998758,0.3586436956
1787890095925695007,-0.074,,,,1787890095925695007,0.3594133205
1787890095933391256,-0.099,,,,1787890095933391256,0.3601829454
1787890095941087505,-0.119,,,,1787890095941087505,0.3609525703
1787890095948783754,-0.117,,,,1787890095948783754,0.3617221952
1787890095956480003,-0.102,,,,1787890095956480003,0.3624918201
1787890095964176252,-0.094,,,,1787890095964176252,0.363261445
1787890095971872501,-0.099,,,,1787890095971872501,0.3640310699
1787890095979568750,-0.102,,,,1787890095979568750,0.3648006948
1787890095987264999,-0.092,,,,1787890095987264999,0.3655703197
1787890095994961248,-0.087,,,,1787890095994961248,0.3663399446
1787890096002657497,-0.077,,,,1787890096002657497,0.3671095695
1787890096010353746,-0.042,,,,1787890096010353746,0.3678791944
1787890096018049995,0.137,,,,1787890096018049995,0.3686488193
1787890096025746244,0.5760000000000001,,,,1787890096025746244,0.3694184442
1787890096033442493,0.755,,,,1787890096033442493,0.3701880691
1787890096041138742,0.229,,,,1787890096041138742,0.370957694
1787890096048834991,-0.411,,,,1787890096048834991,0.3717273189
1787890096056531240,-0.528,,,,1787890096056531240,0.3724969438
1787890096064227489,-0.221,,,,1787890096064227489,0.3732665687
1787890096071923738,-0.037,,,,1787890096071923738,0.3740361936
1787890096079619987,-0.079,,,,1787890096079619987,0.3748058185
1787890096087316236,-0.039,,,,1787890096087316236,0.3755754434
1787890096095012485,0.024,,,,1787890096095012485,0.3763450683
1787890096102708734,0.002,,,,1787890096102708734,0.3771146932
1787890096110404983,0.007,,,,1787890096110404983,0.3778843181
1787890096118101232,0.042,,,,1787890096118101232,0.378653943
1787890096125797481,0.044,,,,1787890096125797481,0.3794235679
1787890096133493730,0.039,,,,1787890096133493730,0.3801931928
1787890096141189979,0.052,,,,1787890096141189979,0.3809628177
1787890096148886228,0.074,,,,1787890096148886228,0.3817324426
1787890096156582477,0.097,,,,1787890096156582477,0.3825020675
1787890096164278726,0.117,,,,1787890096164278726,0.3832716924
1787890096171974975,0.124,,,,1787890096171974975,0.3840413173
1787890096179671224,0.134,,,,1787890096179671224,0.3848109422
1787890096187367473,0.164,,,,1787890096187367473,0.3855805671
1787890096195063722,0.187,,,,1787890096195063722,0.386350192
1787890096202759971,0.207,,,,1787890096202759971,0.3871198169
1787890096210456220,0.231,,,,1787890096210456220,0.3878894418
1787890096218152469,0.251,,,,1787890096218152469,0.3886590667
1787890096225848718,0.259,,,,1787890096225848718,0.3894286916
1787890096233544967,0.251,,,,1787890096233544967,0.3901983165
1787890096241241216,0.224,,,,1787890096241241216,0.3909679414
1787890096248937465,0.187,,,,1787890096248937465,0.3917375663
1787890096256633714,0.147,,,,1787890096256633714,0.3925071912
1787890096264329994,0.084,90.0,654.0,,1787890096264329994,0.3932768192
1787890096272026034,0.0,,,,1787890096272026034,0.3940464232
1787890096279722074,-0.084,,,,1787890096279722074,0.3948160272
1787890096287418114,-0.144,,,,1787890096287418114,0.3955856312
1787890096295114154,-0.192,,,,1787890096295114154,0.3963552352
1787890096302810194,-0.246,,,,1787890096302810194,0.3971248392
1787890096310506234,-0.279,,,,1787890096310506234,0.3978944432
1787890096318202274,-0.271,,,,1787890096318202274,0.3986640472
1787890096325898314,-0.269,,,,1787890096325898314,0.3994336512
1787890096333594354,-0.274,,,,1787890096333594354,0.4002032552
1787890096341290394,-0.264,,,,1787890096341290394,0.4009728592
1787890096348986434,-0.246,,,,1787890096348986434,0.4017424632
1787890096356682474,-0.231,,,,1787890096356682474,0.4025120672
1787890096364378514,-0.207,,,,1787890096364378514,0.4032816712
1787890096372074554,-0.202,,,,1787890096372074554,0.4040512752
1787890096379770594,-0.207,,,,1787890096379770594,0.4048208792
1787890096387466634,-0.194,,,,1787890096387466634,0.4055904832
1787890096395162674,-0.179,,,,1787890096395162674,0.4063600872
1787890096402858714,-0.184,,,,1787890096402858714,0.4071296912
1787890096410554754,-0.189,,,,1787890096410554754,0.4078992952
1787890096418250794,-0.177,,,,1787890096418250794,0.4086688992
1787890096425946834,-0.169,,,,1787890096425946834,0.4094385032
1787890096433642874,-0.172,,,,1787890096433642874,0.4102081072
1787890096441338914,-0.169,,,,1787890096441338914,0.4109777112
1787890096449034954,-0.172,,,,1787890096449034954,0.4117473152
1787890096456730994,-0.174,,,,1787890096456730994,0.4125169192
1787890096464427034,-0.172,,,,1787890096464427034,0.4132865232
1787890096472123074,-0.167,,,,1787890096472123074,0.4140561272
1787890096479819114,-0.162,,,,1787890096479819114,0.4148257312
1787890096487515154,-0.159,,,,1787890096487515154,0.4155953352
1787890096495211194,-0.147,,,,1787890096495211194,0.4163649392
1787890096502907234,-0.134,,,,1787890096502907234,0.4171345432
1787890096510603274,-0.132,,,,1787890096510603274,0.4179041472
1787890096518299314,-0.129,,,,1787890096518299314,0.4186737512
1787890096525995354,-0.119,,,,1787890096525995354,0.4194433552
1787890096533691394,-0.117,,,,1787890096533691394,0.4202129592
1787890096541387434,-0.124,,,,1787890096541387434,0.4209825632
1787890096549083474,-0.124,,,,1787890096549083474,0.4217521672
1787890096556779514,-0.109,,,,1787890096556779514,0.4225217712
1787890096564475554,-0.087,,,,1787890096564475554,0.4232913752
1787890096572171594,-0.064,,,,1787890096572171594,0.4240609792
1787890096579867634,-0.054,,,,1787890096579867634,0.4248305832
1787890096587563674,-0.067,,,,1787890096587563674,0.4256001872
1787890096595259714,-0.087,,,,1787890096595259714,0.4263697912
1787890096602955754,-0.089,,,,1787890096602955754,0.4271393952
1787890096610651794,-0.077,,,,1787890096610651794,0.4279089992
1787890096618347834,-0.072,,,,1787890096618347834,0.4286786032
1787890096626043874,-0.079,,,,1787890096626043874,0.4294482072
1787890096633739914,-0.069,,,,1787890096633739914,0.4302178112
1787890096641435954,-0.052,,,,1787890096641435954,0.4309874152
1787890096649131994,-0.062,,,,1787890096649131994,0.4317570192
1787890096656828034,-0.059,,,,1787890096656828034,0.4325266232
1787890096664524074,-0.032,,,,1787890096664524074,0.4332962272
1787890096672220114,0.039,,,,1787890096672220114,0.4340658312
1787890096679916154,0.369,,,,1787890096679916154,0.4348354352
1787890096687612194,0.803,,,,1787890096687612194,0.4356050392
1787890096695308234,0.606,,,,1787890096695308234,0.4363746432
1787890096703004274,-0.142,,,,1787890096703004274,0.4371442472
1787890096710700314,-0.546,,,,1787890096710700314,0.4379138512
1787890096718396354,-0.356,,,,1787890096718396354,0.4386834552
1787890096726092394,-0.074,,,,1787890096726092394,0.4394530592
1787890096733788434,-0.054,,,,1787890096733788434,0.4402226632
1787890096741484474,-0.064,,,,1787890096741484474,0.4409922672
1787890096749180514,0.017,,,,1787890096749180514,0.4417618712
1787890096756876554,0.037,,,,1787890096756876554,0.4425314752
1787890096764572594,0.022,,,,1787890096764572594,0.4433010792
1787890096772268634,0.044,,,,1787890096772268634,0.4440706832
1787890096779964674,0.062,,,,1787890096779964674,0.4448402872
1787890096787660714,0.064,,,,1787890096787660714,0.4456098912
1787890096795356754,0.082,,,,1787890096795356754,0.4463794952
1787890096803052794,0.094,,,,1787890096803052794,0.4471490992
1787890096810748834,0.102,,,,1787890096810748834,0.4479187032
1787890096818444874,0.127,,,,1787890096818444874,0.4486883072
1787890096826140942,0.147,,,,1787890096826140942,0.449457914
1787890096833837400,0.149,,,,1787890096833837400,0.4502275598
1787890096841533858,0.172,,,,1787890096841533858,0.4509972056
1787890096849230316,0.214,,,,1787890096849230316,0.4517668514
1787890096856926774,0.231,,,,1787890096856926774,0.4525364972
1787890096864623232,0.244,,,,1787890096864623232,0.453306143
1787890096872319690,0.269,,,,1787890096872319690,0.4540757888
1787890096880016148,0.291,,,,1787890096880016148,0.4548454346
1787890096887712606,0.289,,,,1787890096887712606,0.4556150804
1787890096895409064,0.261,,,,1787890096895409064,0.4563847262
1787890096903105522,0.236,,,,1787890096903105522,0.457154372
1787890096910801980,0.209,,,,1787890096910801980,0.4579240178
1787890096918498438,0.142,,,,1787890096918498438,0.4586936636
1787890096926194896,0.054,,,,1787890096926194896,0.4594633094
1787890096933891354,-0.017,,,,1787890096933891354,0.4602329552
1787890096941587812,-0.084,,,,1787890096941587812,0.461002601
1787890096949284270,-0.147,,,,1787890096949284270,0.4617722468
1787890096956980728,-0.189,,,,1787890096956980728,0.4625418926
1787890096964677186,-0.219,,,,1787890096964677186,0.4633115384
1787890096972373644,-0.246,,,,1787890096972373644,0.4640811842
1787890096980070102,-0.261,,,,1787890096980070102,0.46485083
1787890096987766560,-0.251,,,,1787890096987766560,0.4656204758
1787890096995463018,-0.241,,,,1787890096995463018,0.4663901216
1787890097003159476,-0.244,,,,1787890097003159476,0.4671597674
1787890097010855934,-0.231,,,,1787890097010855934,0.4679294132
1787890097018552392,-0.207,,,,1787890097018552392,0.468699059
1787890097026248850,-0.202,,,,1787890097026248850,0.4694687048
1787890097033945308,-0.209,,,,1787890097033945308,0.4702383506
1787890097041641766,-0.192,,,,1787890097041641766,0.4710079964
1787890097049338224,-0.162,,,,1787890097049338224,0.4717776422
1787890097057034682,-0.167,,,,1787890097057034682,0.472547288
1787890097064731140,-0.182,,,,1787890097064731140,0.4733169338
1787890097072427598,-0.174,,,,1787890097072427598,0.4740865796
1787890097080124056,-0.169,,,,1787890097080124056,0.4748562254
1787890097087820514,-0.174,,,,1787890097087820514,0.4756258712
1787890097095516972,-0.177,,,,1787890097095516972,0.476395517
1787890097103213430,-0.179,,,,1787890097103213430,0.4771651628
1787890097110909888,-0.179,,,,1787890097110909888,0.4779348086
1787890097118606346,-0.182,,,,1787890097118606346,0.4787044544
1787890097126302804,-0.172,,,,1787890097126302804,0.4794741002
1787890097133999262,-0.147,,,,1787890097133999262,0.480243746
1787890097141695720,-0.152,,,,1787890097141695720,0.4810133918
1787890097149392178,-0.172,,,,1787890097149392178,0.4817830376
1787890097157088636,-0.164,,,,1787890097157088636,0.4825526834
1787890097164785094,-0.149,,,,1787890097164785094,0.4833223292
1787890097172481552,-0.149,,,,1787890097172481552,0.484091975
1787890097180178010,-0.147,,,,1787890097180178010,0.4848616208
1787890097187874468,-0.142,,,,1787890097187874468,0.4856312666
1787890097195570926,-0.137,,,,1787890097195570926,0.4864009124
1787890097203267384,-0.129,,,,1787890097203267384,0.4871705582
1787890097210963842,-0.124,,,,1787890097210963842,0.487940204
1787890097218660300,-0.129,,,,1787890097218660300,0.4887098498
1787890097226356758,-0.124,,,,1787890097226356758,0.4894794956
1787890097234053216,-0.092,,,,1787890097234053216,0.4902491414
1787890097241749674,-0.069,,,,1787890097241749674,0.4910187872
1787890097249446132,-0.077,,,,1787890097249446132,0.491788433
1787890097257142590,-0.087,,,,1787890097257142590,0.4925580788
1787890097264839048,-0.102,,,,1787890097264839048,0.4933277246
1787890097272535506,-0.112,,,,1787890097272535506,0.4940973704
1787890097280231964,-0.099,,,,1787890097280231964,0.4948670162
1787890097287928422,-0.099,,,,1787890097287928422,0.495636662
1787890097295624880,-0.107,,,,1787890097295624880,0.4964063078
1787890097303321338,-0.097,,,,1787890097303321338,0.4971759536
1787890097311017796,-0.082,,,,1787890097311017796,0.4979455994
1787890097318714254,-0.087,,,,1787890097318714254,0.4987152452
1787890097326410712,-0.087,,,,1787890097326410712,0.499484891
1787890097334107170,-0.074,,,,1787890097334107170,0.5002545368
1787890097341803628,-0.047,,,,1787890097341803628,0.5010241826
1787890097349500086,0.204,,,,1787890097349500086,0.5017938284
1787890097357196544,0.683,,,,1787890097357196544,0.5025634742
1787890097364893002,0.708,,,,1787890097364893002,0.50333312
1787890097372589460,0.074,,,,1787890097372589460,0.5041027658
1787890097380285918,-0.473,,,,1787890097380285918,0.5048724116
1787890097387982408,-0.468,90.0,649.0,,1787890097387982408,0.5056420606
1787890097395678448,-0.157,,654.0,,1787890097395678448,0.5064116646
1787890097403374488,-0.032,,,,1787890097403374488,0.5071812686
1787890097411070528,-0.072,,,,1787890097411070528,0.5079508726
1787890097418766568,-0.022,,,,1787890097418766568,0.5087204766
1787890097426462608,0.012,,,,1787890097426462608,0.5094900806
1787890097434158648,0.0,,,,1787890097434158648,0.5102596846
1787890097441854688,0.024,,,,1787890097441854688,0.5110292886
1787890097449550728,0.047,,,,1787890097449550728,0.5117988926
1787890097457246768,0.052,,,,1787890097457246768,0.5125684966
1787890097464942808,0.077,,,,1787890097464942808,0.5133381006
1787890097472638848,0.094,,,,1787890097472638848,0.5141077046
1787890097480334888,0.094,,,,1787890097480334888,0.5148773086
1787890097488030928,0.109,,,,1787890097488030928,0.5156469126
1787890097495726968,0.132,,,,1787890097495726968,0.5164165166
1787890097503423008,0.152,,,,1787890097503423008,0.5171861206
1787890097511119048,0.174,,,,1787890097511119048,0.5179557246
1787890097518815088,0.197,,,,1787890097518815088,0.5187253286
1787890097526511128,0.217,,,,1787890097526511128,0.5194949326
1787890097534207168,0.236,,,,1787890097534207168,0.5202645366
1787890097541903208,0.264,,,,1787890097541903208,0.5210341406
1787890097549599248,0.284,,,,1787890097549599248,0.5218037446
1787890097557295288,0.274,,,,1787890097557295288,0.5225733486
1787890097564991328,0.256,,,,1787890097564991328,0.5233429526
1787890097572687368,0.234,,,,1787890097572687368,0.5241125566
1787890097580383408,0.197,,,,1787890097580383408,0.5248821606
1787890097588079448,0.154,,,,1787890097588079448,0.5256517646
1787890097595775488,0.099,,,,1787890097595775488,0.5264213686
1787890097603471528,0.037,,,,1787890097603471528,0.5271909726
1787890097611167568,-0.027,,,,1787890097611167568,0.5279605766
1787890097618863608,-0.102,,,,1787890097618863608,0.5287301806
1787890097626559648,-0.162,,,,1787890097626559648,0.5294997846
1787890097634255688,-0.194,,,,1787890097634255688,0.5302693886
1787890097641951728,-0.224,,,,1787890097641951728,0.5310389926
1787890097649647768,-0.249,,,,1787890097649647768,0.5318085966
1787890097657343808,-0.239,,,,1787890097657343808,0.5325782006
1787890097665039848,-0.224,,,,1787890097665039848,0.5333478046
1787890097672735888,-0.226,,,,1787890097672735888,0.5341174086
1787890097680431928,-0.217,,,,1787890097680431928,0.5348870126
1787890097688127968,-0.204,,,,1787890097688127968,0.5356566166
1787890097695824008,-0.197,,,,1787890097695824008,0.5364262206
1787890097703520048,-0.179,,,,1787890097703520048,0.5371958246
1787890097711216088,-0.177,,,,1787890097711216088,0.5379654286
1787890097718912128,-0.197,,,,1787890097718912128,0.5387350326
1787890097726608168,-0.192,,,,1787890097726608168,0.5395046366
1787890097734304208,-0.174,,,,1787890097734304208,0.5402742406
1787890097742000248,-0.177,,,,1787890097742000248,0.5410438446
1787890097749696288,-0.189,,,,1787890097749696288,0.5418134486
1787890097757392328,-0.197,,,,1787890097757392328,0.5425830526
1787890097765088368,-0.197,,,,1787890097765088368,0.5433526566
1787890097772784408,-0.182,,,,1787890097772784408,0.5441222606
1787890097780480448,-0.164,,,,1787890097780480448,0.5448918646
1787890097788176488,-0.167,,,,1787890097788176488,0.5456614686
1787890097795872528,-0.172,,,,1787890097795872528,0.5464310726
1787890097803568568,-0.169,,,,1787890097803568568,0.5472006766
1787890097811264608,-0.164,,,,1787890097811264608,0.5479702806
1787890097818960648,-0.169,,,,1787890097818960648,0.5487398846
1787890097826656688,-0.169,,,,1787890097826656688,0.5495094886
1787890097834352728,-0.147,,,,1787890097834352728,0.5502790926
1787890097842048768,-0.137,,,,1787890097842048768,0.5510486966
1787890097849744808,-0.147,,,,1787890097849744808,0.5518183006
1787890097857440848,-0.144,,,,1787890097857440848,0.5525879046
1787890097865136888,-0.137,,,,1787890097865136888,0.5533575086
1787890097872832928,-0.129,,,,1787890097872832928,0.5541271126
1787890097880528968,-0.117,,,,1787890097880528968,0.5548967166
1787890097888225008,-0.114,,,,1787890097888225008,0.5556663206
1787890097895921048,-0.114,,,,1787890097895921048,0.5564359246
1787890097903617088,-0.079,,,,1787890097903617088,0.5572055286
1787890097911313128,-0.042,,,,1787890097911313128,0.5579751326
1787890097919009168,-0.049,,,,1787890097919009168,0.5587447366
1787890097926705208,-0.082,,,,1787890097926705208,0.5595143406
1787890097934401248,-0.104,,,,1787890097934401248,0.5602839446
1787890097942097288,-0.104,,,,1787890097942097288,0.5610535486
1787890097949793358,-0.089,,,,1787890097949793358,0.5618231556
1787890097957489816,-0.089,,,,1787890097957489816,0.5625928014
1787890097965186274,-0.094,,,,1787890097965186274,0.5633624472
1787890097972882732,-0.077,,,,1787890097972882732,0.564132093
1787890097980579190,-0.067,,,,1787890097980579190,0.5649017388
1787890097988275648,-0.079,,,,1787890097988275648,0.5656713846
1787890097995972106,-0.077,,,,1787890097995972106,0.5664410304
1787890098003668564,-0.047,,,,1787890098003668564,0.5672106762
1787890098011365022,0.062,,,,1787890098011365022,0.567980322
1787890098019061480,0.448,,,,1787890098019061480,0.5687499678
1787890098026757938,0.8150000000000001,,,,1787890098026757938,0.5695196136
1787890098034454396,0.506,,,,1787890098034454396,0.5702892594
1787890098042150854,-0.212,,,,1787890098042150854,0.5710589052
1787890098049847312,-0.543,,,,1787890098049847312,0.571828551
1787890098057543770,-0.334,,,,1787890098057543770,0.5725981968
1787890098065240228,-0.057,,,,1787890098065240228,0.5733678426
1787890098072936686,-0.032,,,,1787890098072936686,0.5741374884
1787890098080633144,-0.042,,,,1787890098080633144,0.5749071342
1787890098088329602,0.037,,,,1787890098088329602,0.57567678
1787890098096026060,0.067,,,,1787890098096026060,0.5764464258
1787890098103722518,0.062,,,,1787890098103722518,0.5772160716
1787890098111418976,0.087,,,,1787890098111418976,0.5779857174
1787890098119115434,0.099,,,,1787890098119115434,0.5787553632
1787890098126811892,0.097,,,,1787890098126811892,0.579525009
1787890098134508350,0.114,,,,1787890098134508350,0.5802946548
1787890098142204808,0.129,,,,1787890098142204808,0.5810643006
1787890098149901266,0.139,,,,1787890098149901266,0.5818339464
1787890098157597724,0.157,,,,1787890098157597724,0.5826035922
1787890098165294182,0.172,,,,1787890098165294182,0.583373238
1787890098172990640,0.169,,,,1787890098172990640,0.5841428838
1787890098180687098,0.199,,,,1787890098180687098,0.5849125296
1787890098188383556,0.251,,,,1787890098188383556,0.5856821754
1787890098196080014,0.254,,,,1787890098196080014,0.5864518212
1787890098203776472,0.256,,,,1787890098203776472,0.587221467
1787890098211472930,0.296,,,,1787890098211472930,0.5879911128
1787890098219169388,0.311,,,,1787890098219169388,0.5887607586
1787890098226865846,0.286,,,,1787890098226865846,0.5895304044
1787890098234562304,0.264,,,,1787890098234562304,0.5903000502
1787890098242258762,0.236,,,,1787890098242258762,0.591069696
1787890098249955220,0.189,,,,1787890098249955220,0.5918393418
1787890098257651678,0.142,,,,1787890098257651678,0.5926089876
1787890098265348136,0.089,,,,1787890098265348136,0.5933786334
1787890098273044594,0.012,,,,1787890098273044594,0.5941482792
1787890098280741052,-0.067,,,,1787890098280741052,0.594917925
1787890098288437510,-0.122,,,,1787890098288437510,0.5956875708
1787890098296133968,-0.169,,,,1787890098296133968,0.5964572166
1787890098303830426,-0.207,,,,1787890098303830426,0.5972268624
1787890098311526884,-0.226,,,,1787890098311526884,0.5979965082
1787890098319223342,-0.241,,,,1787890098319223342,0.598766154
1787890098326919800,-0.249,,,,1787890098326919800,0.5995357998
1787890098334616258,-0.236,,,,1787890098334616258,0.6003054456
1787890098342312716,-0.204,,,,1787890098342312716,0.6010750914
1787890098350009174,-0.189,,,,1787890098350009174,0.6018447372
1787890098357705632,-0.197,,,,1787890098357705632,0.602614383
1787890098365402090,-0.189,,,,1787890098365402090,0.6033840288
1787890098373098548,-0.179,,,,1787890098373098548,0.6041536746
1787890098380795006,-0.177,,,,1787890098380795006,0.6049233204
1787890098388491464,-0.167,,,,1787890098388491464,0.6056929662
1787890098396187922,-0.162,,,,1787890098396187922,0.606462612
1787890098403884380,-0.169,,,,1787890098403884380,0.6072322578
1787890098411580838,-0.164,,,,1787890098411580838,0.6080019036
1787890098419277296,-0.159,,,,1787890098419277296,0.6087715494
1787890098426973754,-0.159,,,,1787890098426973754,0.6095411952
1787890098434670212,-0.152,,,,1787890098434670212,0.610310841
1787890098442366670,-0.157,,,,1787890098442366670,0.6110804868
1787890098450063128,-0.179,,,,1787890098450063128,0.6118501326
1787890098457759586,-0.174,,,,1787890098457759586,0.6126197784
1787890098465456044,-0.147,,,,1787890098465456044,0.6133894242
1787890098473152502,-0.139,,,,1787890098473152502,0.61415907
1787890098480848960,-0.159,,,,1787890098480848960,0.6149287158
1787890098488545418,-0.159,,,,1787890098488545418,0.6156983616
1787890098496241876,-0.132,,,,1787890098496241876,0.6164680074
1787890098503938334,-0.122,,,,1787890098503938334,0.6172376532
1787890098511634824,-0.129,91.0,658.0,,1787890098511634824,0.6180073022
1787890098519330864,-0.127,,,,1787890098519330864,0.6187769062
1787890098527026904,-0.117,,,,1787890098527026904,0.6195465102
1787890098534722944,-0.107,,,,1787890098534722944,0.6203161142
1787890098542418984,-0.099,,,,1787890098542418984,0.6210857182
1787890098550115024,-0.097,,,,1787890098550115024,0.6218553222
1787890098557811064,-0.094,,,,1787890098557811064,0.6226249262
1787890098565507104,-0.089,,,,1787890098565507104,0.6233945302
1787890098573203144,-0.079,,,,1787890098573203144,0.6241641342
1787890098580899184,-0.059,,,,1787890098580899184,0.6249337382
1787890098588595224,-0.042,,,,1787890098588595224,0.6257033422
1787890098596291264,-0.014,,,,1787890098596291264,0.6264729462
1787890098603987304,0.004,,,,1787890098603987304,0.6272425502
1787890098611683344,-0.024,,,,1787890098611683344,0.6280121542
1787890098619379384,-0.069,,,,1787890098619379384,0.6287817582
1787890098627075424,-0.072,,,,1787890098627075424,0.6295513622
1787890098634771464,-0.054,,,,1787890098634771464,0.6303209662
1787890098642467504,-0.049,,,,1787890098642467504,0.6310905702
1787890098650163544,-0.054,,,,1787890098650163544,0.6318601742
1787890098657859584,-0.062,,,,1787890098657859584,0.6326297782
1787890098665555624,-0.057,,,,1787890098665555624,0.6333993822
1787890098673251664,-0.044,,,,1787890098673251664,0.6341689862
1787890098680947704,-0.039,,,,1787890098680947704,0.6349385902
1787890098688643744,-0.039,,,,1787890098688643744,0.6357081942
1787890098696339784,0.004,,,,1787890098696339784,0.6364777982
1787890098704035824,0.266,,,,1787890098704035824,0.6372474022
1787890098711731864,0.708,,,,1787890098711731864,0.6380170062
1787890098719427904,0.7030000000000001,,,,1787890098719427904,0.6387866102
1787890098727123944,0.074,,,,1787890098727123944,0.6395562142
1787890098734819984,-0.466,,,,1787890098734819984,0.6403258182
1787890098742516024,-0.463,,,,1787890098742516024,0.6410954222
1787890098750212064,-0.149,,,,1787890098750212064,0.6418650262
1787890098757908104,-0.012,,,,1787890098757908104,0.6426346302
1787890098765604144,-0.052,,,,1787890098765604144,0.6434042342
1787890098773300184,-0.002,,,,1787890098773300184,0.6441738382
1787890098780996224,0.044,,,,1787890098780996224,0.6449434422
1787890098788692264,0.032,,,,1787890098788692264,0.6457130462
1787890098796388304,0.054,,,,1787890098796388304,0.6464826502
1787890098804084344,0.079,,,,1787890098804084344,0.6472522542
1787890098811780384,0.067,,,,1787890098811780384,0.6480218582
1787890098819476424,0.072,,,,1787890098819476424,0.6487914622
1787890098827172464,0.119,,,,1787890098827172464,0.6495610662
1787890098834868504,0.134,,,,1787890098834868504,0.6503306702
1787890098842564544,0.129,,,,1787890098842564544,0.6511002742
1787890098850260584,0.159,,,,1787890098850260584,0.6518698782
1787890098857956624,0.189,,,,1787890098857956624,0.6526394822
1787890098865652664,0.199,,,,1787890098865652664,0.6534090862
1787890098873348704,0.217,,,,1787890098873348704,0.6541786902
1787890098881044744,0.244,,,,1787890098881044744,0.6549482942
1787890098888740784,0.276,,,,1787890098888740784,0.6557178982
1787890098896436824,0.294,,,,1787890098896436824,0.6564875022
1787890098904132864,0.289,,,,1787890098904132864,0.6572571062
1787890098911828904,0.281,,,,1787890098911828904,0.6580267102
1787890098919524944,0.279,,,,1787890098919524944,0.6587963142
1787890098927220984,0.264,,,,1787890098927220984,0.6595659182
1787890098934917024,0.221,,,,1787890098934917024,0.6603355222
1787890098942613064,0.182,,,,1787890098942613064,0.6611051262
1787890098950309104,0.134,,,,1787890098950309104,0.6618747302
1787890098958005144,0.054,,,,1787890098958005144,0.6626443342
1787890098965701184,-0.022,,,,1787890098965701184,0.6634139382
1787890098973397224,-0.087,,,,1787890098973397224,0.6641835422
1787890098981093264,-0.144,,,,1787890098981093264,0.6649531462
1787890098988789304,-0.189,,,,1787890098988789304,0.6657227502
1787890098996485344,-0.217,,,,1787890098996485344,0.6664923542
1787890099004181384,-0.231,,,,1787890099004181384,0.6672619582
1787890099011877424,-0.234,,,,1787890099011877424,0.6680315622
1787890099019573464,-0.226,,,,1787890099019573464,0.6688011662
1787890099027269504,-0.209,,,,1787890099027269504,0.6695707702
1787890099034965544,-0.192,,,,1787890099034965544,0.6703403742
1787890099042661584,-0.184,,,,1787890099042661584,0.6711099782
1787890099050357624,-0.177,,,,1787890099050357624,0.6718795822
1787890099058053664,-0.169,,,,1787890099058053664,0.6726491862
1787890099065749704,-0.169,,,,1787890099065749704,0.6734187902
1787890099073445772,-0.157,,,,1787890099073445772,0.674188397
1787890099081142091,-0.137,,,,1787890099081142091,0.6749580289
1787890099088838410,-0.137,,,,1787890099088838410,0.6757276608
1787890099096534729,-0.144,,,,1787890099096534729,0.6764972927
1787890099104231048,-0.139,,,,1787890099104231048,0.6772669246
1787890099111927367,-0.132,,,,1787890099111927367,0.6780365565
1787890099119623686,-0.129,,,,1787890099119623686,0.6788061884
1787890099127320005,-0.124,,,,1787890099127320005,0.6795758203
1787890099135016324,-0.129,,,,1787890099135016324,0.6803454522
1787890099142712643,-0.142,,,,1787890099142712643,0.6811150841
1787890099150408962,-0.124,,,,1787890099150408962,0.681884716
1787890099158105281,-0.107,,,,1787890099158105281,0.6826543479
1787890099165801600,-0.119,,,,1787890099165801600,0.6834239798
1787890099173497919,-0.122,,,,1787890099173497919,0.6841936117
1787890099181194238,-0.112,,,,1787890099181194238,0.6849632436
1787890099188890557,-0.104,,,,1787890099188890557,0.6857328755
1787890099196586876,-0.097,,,,1787890099196586876,0.6865025074
1787890099204283195,-0.089,,,,1787890099204283195,0.6872721393
1787890099211979514,-0.087,,,,1787890099211979514,0.6880417712
1787890099219675833,-0.082,,,,1787890099219675833,0.6888114031
1787890099227372152,-0.082,,,,1787890099227372152,0.689581035
1787890099235068471,-0.092,,,,1787890099235068471,0.6903506669
1787890099242764790,-0.087,,,,1787890099242764790,0.6911202988
1787890099250461109,-0.072,,,,1787890099250461109,0.6918899307
1787890099258157428,-0.064,,,,1787890099258157428,0.6926595626
1787890099265853747,-0.052,,,,1787890099265853747,0.6934291945
1787890099273550066,-0.024,,,,1787890099273550066,0.6941988264
1787890099281246385,-0.004,,,,1787890099281246385,0.6949684583
1787890099288942704,-0.019,,,,1787890099288942704,0.6957380902
1787890099296639023,-0.052,,,,1787890099296639023,0.6965077221
1787890099304335342,-0.067,,,,1787890099304335342,0.697277354
1787890099312031661,-0.059,,,,1787890099312031661,0.6980469859
1787890099319727980,-0.054,,,,1787890099319727980,0.6988166178
1787890099327424299,-0.054,,,,1787890099327424299,0.6995862497
1787890099335120618,-0.054,,,,1787890099335120618,0.7003558816
1787890099342816937,-0.044,,,,1787890099342816937,0.7011255135
1787890099350513256,-0.042,,,,1787890099350513256,0.7018951454
1787890099358209575,-0.049,,,,1787890099358209575,0.7026647773
1787890099365905894,-0.027,,,,1787890099365905894,0.7034344092
1787890099373602213,0.019,,,,1787890099373602213,0.7042040411
1787890099381298532,0.154,,,,1787890099381298532,0.704973673
1787890099388994851,0.5680000000000001,,,,1787890099388994851,0.7057433049
1787890099396691170,0.8250000000000001,,,,1787890099396691170,0.7065129368
1787890099404387489,0.344,,,,1787890099404387489,0.7072825687
1787890099412083808,-0.369,,,,1787890099412083808,0.7080522006
1787890099419780127,-0.526,,,,1787890099419780127,0.7088218325
1787890099427476446,-0.192,,,,1787890099427476446,0.7095914644
1787890099435172765,-0.002,,,,1787890099435172765,0.7103610963
1787890099442869084,-0.064,,,,1787890099442869084,0.7111307282
1787890099450565403,-0.029,,,,1787890099450565403,0.7119003601
1787890099458261722,0.047,,,,1787890099458261722,0.712669992
1787890099465958041,0.039,,,,1787890099465958041,0.7134396239
1787890099473654360,0.052,,,,1787890099473654360,0.7142092558
1787890099481350679,0.077,,,,1787890099481350679,0.7149788877
1787890099489046998,0.069,,,,1787890099489046998,0.7157485196
1787890099496743317,0.079,,,,1787890099496743317,0.7165181515
1787890099504439636,0.102,,,,1787890099504439636,0.7172877834
1787890099512135955,0.102,,,,1787890099512135955,0.7180574153
1787890099519832274,0.102,,,,1787890099519832274,0.7188270472
1787890099527528593,0.142,,,,1787890099527528593,0.7195966791
1787890099535224912,0.182,,,,1787890099535224912,0.720366311
1787890099542921231,0.184,,,,1787890099542921231,0.7211359429
1787890099550617550,0.197,,,,1787890099550617550,0.7219055748
1787890099558313869,0.231,,,,1787890099558313869,0.7226752067
1787890099566010188,0.249,,,,1787890099566010188,0.7234448386
1787890099573706507,0.261,,,,1787890099573706507,0.7242144705
1787890099581402826,0.296,,,,1787890099581402826,0.7249841024
1787890099589099145,0.309,,,,1787890099589099145,0.7257537343
1787890099596795464,0.279,,,,1787890099596795464,0.7265233662
1787890099604491783,0.256,,,,1787890099604491783,0.7272929981
1787890099612188102,0.236,,,,1787890099612188102,0.72806263
1787890099619884421,0.179,,,,1787890099619884421,0.7288322619
1787890099627580740,0.109,,,,1787890099627580740,0.7296018938
1787890099635277064,0.034,91.0,672.0,,1787890099635277064,0.7303715262
1787890099642973243,-0.047,,666.0,,1787890099642973243,0.7311411441
1787890099650669422,-0.127,,,,1787890099650669422,0.731910762
1787890099658365601,-0.194,,,,1787890099658365601,0.7326803799
1787890099666061780,-0.241,,,,1787890099666061780,0.7334499978
1787890099673757959,-0.261,,,,1787890099673757959,0.7342196157
1787890099681454138,-0.269,,,,1787890099681454138,0.7349892336
1787890099689150317,-0.276,,,,1787890099689150317,0.7357588515
1787890099696846496,-0.276,,,,1787890099696846496,0.7365284694
1787890099704542675,-0.274,,,,1787890099704542675,0.7372980873
1787890099712238854,-0.264,,,,1787890099712238854,0.7380677052
1787890099719935033,-0.246,,,,1787890099719935033,0.7388373231
1787890099727631212,-0.236,,,,1787890099727631212,0.739606941
1787890099735327391,-0.236,,,,1787890099735327391,0.7403765589
1787890099743023570,-0.229,,,,1787890099743023570,0.7411461768
1787890099750719749,-0.217,,,,1787890099750719749,0.7419157947
1787890099758415928,-0.212,,,,1787890099758415928,0.7426854126
1787890099766112107,-0.207,,,,1787890099766112107,0.7434550305
1787890099773808286,-0.207,,,,1787890099773808286,0.7442246484
1787890099781504465,-0.219,,,,1787890099781504465,0.7449942663
1787890099789200644,-0.209,,,,1787890099789200644,0.7457638842
1787890099796896823,-0.189,,,,1787890099796896823,0.7465335021
1787890099804593002,-0.197,,,,1787890099804593002,0.74730312
1787890099812289181,-0.202,,,,1787890099812289181,0.7480727379
1787890099819985360,-0.189,,,,1787890099819985360,0.7488423558
1787890099827681539,-0.192,,,,1787890099827681539,0.7496119737
1787890099835377718,-0.204,,,,1787890099835377718,0.7503815916
1787890099843073897,-0.199,,,,1787890099843073897,0.7511512095
1787890099850770076,-0.194,,,,1787890099850770076,0.7519208274
1787890099858466255,-0.192,,,,1787890099858466255,0.7526904453
1787890099866162434,-0.184,,,,1787890099866162434,0.7534600632
1787890099873858613,-0.187,,,,1787890099873858613,0.7542296811
1787890099881554792,-0.177,,,,1787890099881554792,0.754999299
1787890099889250971,-0.162,,,,1787890099889250971,0.7557689169
1787890099896947150,-0.167,,,,1787890099896947150,0.7565385348
1787890099904643329,-0.167,,,,1787890099904643329,0.7573081527
1787890099912339508,-0.149,,,,1787890099912339508,0.7580777706
1787890099920035687,-0.152,,,,1787890099920035687,0.7588473885
1787890099927731866,-0.159,,,,1787890099927731866,0.7596170064
1787890099935428045,-0.137,,,,1787890099935428045,0.7603866243
1787890099943124224,-0.107,,,,1787890099943124224,0.7611562422
1787890099950820403,-0.102,,,,1787890099950820403,0.7619258601
1787890099958516582,-0.124,,,,1787890099958516582,0.762695478
1787890099966212761,-0.157,,,,1787890099966212761,0.7634650959
1787890099973908940,-0.159,,,,1787890099973908940,0.7642347138
1787890099981605119,-0.147,,,,1787890099981605119,0.7650043317
1787890099989301298,-0.147,,,,1787890099989301298,0.7657739496
1787890099996997477,-0.154,,,,1787890099996997477,0.7665435675
1787890100004693656,-0.149,,,,1787890100004693656,0.7673131854
1787890100012389835,-0.142,,,,1787890100012389835,0.7680828033
1787890100020086014,-0.134,,,,1787890100020086014,0.7688524212
1787890100027782193,-0.119,,,,1787890100027782193,0.7696220391
1787890100035478372,-0.109,,,,1787890100035478372,0.770391657
1787890100043174551,0.004,,,,1787890100043174551,0.7711612749
1787890100050870730,0.414,,,,1787890100050870730,0.7719308928
1787890100058566909,0.708,,,,1787890100058566909,0.7727005107
1787890100066263088,0.309,,,,1787890100066263088,0.7734701286
1787890100073959267,-0.354,,,,1787890100073959267,0.7742397465
1787890100081655446,-0.5730000000000001,,,,1787890100081655446,0.7750093644
1787890100089351625,-0.319,,,,1787890100089351625,0.7757789823
1787890100097047804,-0.084,,,,1787890100097047804,0.7765486002
1787890100104743983,-0.097,,,,1787890100104743983,0.7773182181
1787890100112440162,-0.077,,,,1787890100112440162,0.778087836
1787890100120136341,-0.002,,,,1787890100120136341,0.7788574539
1787890100127832520,-0.017,,,,1787890100127832520,0.7796270718
1787890100135528699,-0.022,,,,1787890100135528699,0.7803966897
1787890100143224878,0.014,,,,1787890100143224878,0.7811663076
1787890100150921057,0.019,,,,1787890100150921057,0.7819359255
1787890100158617236,0.014,,,,1787890100158617236,0.7827055434
1787890100166313415,0.037,,,,1787890100166313415,0.7834751613
1787890100174009594,0.054,,,,1787890100174009594,0.7842447792
1787890100181705773,0.064,,,,1787890100181705773,0.7850143971
1787890100189401952,0.084,,,,1787890100189401952,0.785784015
1787890100197098186,0.104,,,,1787890100197098186,0.7865536384
1787890100204794226,0.117,,,,1787890100204794226,0.7873232424
1787890100212490266,0.137,,,,1787890100212490266,0.7880928464
1787890100220186306,0.164,,,,1787890100220186306,0.7888624504
1787890100227882346,0.189,,,,1787890100227882346,0.7896320544
1787890100235578386,0.219,,,,1787890100235578386,0.7904016584
1787890100243274426,0.249,,,,1787890100243274426,0.7911712624
1787890100250970466,0.261,,,,1787890100250970466,0.7919408664
1787890100258666506,0.246,,,,1787890100258666506,0.7927104704
1787890100266362546,0.231,,,,1787890100266362546,0.7934800744
1787890100274058586,0.209,,,,1787890100274058586,0.7942496784
1787890100281754626,0.154,,,,1787890100281754626,0.7950192824
1787890100289450666,0.089,,,,1787890100289450666,0.7957888864
1787890100297146706,0.017,,,,1787890100297146706,0.7965584904
1787890100304842746,-0.077,,,,1787890100304842746,0.7973280944
1787890100312538786,-0.154,,,,1787890100312538786,0.7980976984
1787890100320234826,-0.202,,,,1787890100320234826,0.7988673024
1787890100327930866,-0.249,,,,1787890100327930866,0.7996369064
1787890100335626906,-0.286,,,,1787890100335626906,0.8004065104
1787890100343322946,-0.309,,,,1787890100343322946,0.8011761144
1787890100351018986,-0.314,,,,1787890100351018986,0.8019457184
1787890100358715026,-0.309,,,,1787890100358715026,0.8027153224
1787890100366411066,-0.294,,,,1787890100366411066,0.8034849264
1787890100374107106,-0.276,,,,1787890100374107106,0.8042545304
1787890100381803146,-0.269,,,,1787890100381803146,0.8050241344
1787890100389499186,-0.264,,,,1787890100389499186,0.8057937384
1787890100397195226,-0.254,,,,1787890100397195226,0.8065633424
1787890100404891266,-0.236,,,,1787890100404891266,0.8073329464
1787890100412587306,-0.229,,,,1787890100412587306,0.8081025504
1787890100420283346,-0.231,,,,1787890100420283346,0.8088721544
1787890100427979386,-0.226,,,,1787890100427979386,0.8096417584
1787890100435675426,-0.221,,,,1787890100435675426,0.8104113624
1787890100443371466,-0.214,,,,1787890100443371466,0.8111809664
1787890100451067506,-0.202,,,,1787890100451067506,0.8119505704
1787890100458763546,-0.199,,,,1787890100458763546,0.8127201744
1787890100466459586,-0.204,,,,1787890100466459586,0.8134897784
1787890100474155626,-0.207,,,,1787890100474155626,0.8142593824
1787890100481851666,-0.204,,,,1787890100481851666,0.8150289864
1787890100489547706,-0.207,,,,1787890100489547706,0.8157985904
1787890100497243746,-0.202,,,,1787890100497243746,0.8165681944
1787890100504939786,-0.187,,,,1787890100504939786,0.8173377984
1787890100512635826,-0.187,,,,1787890100512635826,0.8181074024
1787890100520331866,-0.194,,,,1787890100520331866,0.8188770064
1787890100528027906,-0.182,,,,1787890100528027906,0.8196466104
1787890100535723946,-0.164,,,,1787890100535723946,0.8204162144
1787890100543419986,-0.167,,,,1787890100543419986,0.8211858184
1787890100551116026,-0.157,,,,1787890100551116026,0.8219554224
1787890100558812066,-0.134,,,,1787890100558812066,0.8227250264
1787890100566508106,-0.134,,,,1787890100566508106,0.8234946304
1787890100574204146,-0.147,,,,1787890100574204146,0.8242642344
1787890100581900186,-0.142,,,,1787890100581900186,0.8250338384
1787890100589596226,-0.127,,,,1787890100589596226,0.8258034424
1787890100597292266,-0.122,,,,1787890100597292266,0.8265730464
1787890100604988306,-0.104,,,,1787890100604988306,0.8273426504
1787890100612684346,-0.087,,,,1787890100612684346,0.8281122544
1787890100620380386,-0.097,,,,1787890100620380386,0.8288818584
1787890100628076426,-0.122,,,,1787890100628076426,0.8296514624
1787890100635772466,-0.129,,,,1787890100635772466,0.8304210664
1787890100643468506,-0.122,,,,1787890100643468506,0.8311906704
1787890100651164546,-0.122,,,,1787890100651164546,0.8319602744
1787890100658860586,-0.129,,,,1787890100658860586,0.8327298784
1787890100666556626,-0.119,,,,1787890100666556626,0.8334994824
1787890100674252666,-0.112,,,,1787890100674252666,0.8342690864
1787890100681948706,-0.114,,,,1787890100681948706,0.8350386904
1787890100689644746,-0.112,,,,1787890100689644746,0.8358082944
1787890100697340786,-0.097,,,,1787890100697340786,0.8365778984
1787890100705036826,-0.074,,,,1787890100705036826,0.8373475024
1787890100712732866,0.119,,,,1787890100712732866,0.8381171064
1787890100720428906,0.581,,,,1787890100720428906,0.8388867104
1787890100728124946,0.73,,,,1787890100728124946,0.8396563144
1787890100735820986,0.162,,,,1787890100735820986,0.8404259184
1787890100743517026,-0.468,,,,1787890100743517026,0.8411955224
1787890100751213066,-0.538,,,,1787890100751213066,0.8419651264
1787890100758909134,-0.212,91.0,688.0,,1787890100758909134,0.8427347332
1787890100766605592,-0.052,,,,1787890100766605592,0.843504379
1787890100774302050,-0.112,,,,1787890100774302050,0.8442740248
1787890100781998508,-0.059,,,,1787890100781998508,0.8450436706
1787890100789694966,0.017,,,,1787890100789694966,0.8458133164
1787890100797391424,0.0,,,,1787890100797391424,0.8465829622
1787890100805087882,0.002,,,,1787890100805087882,0.847352608
1787890100812784340,0.037,,,,1787890100812784340,0.8481222538
1787890100820480798,0.039,,,,1787890100820480798,0.8488918996
1787890100828177256,0.052,,,,1787890100828177256,0.8496615454
1787890100835873714,0.089,,,,1787890100835873714,0.8504311912
1787890100843570172,0.107,,,,1787890100843570172,0.851200837
1787890100851266630,0.104,,,,1787890100851266630,0.8519704828
1787890100858963088,0.124,,,,1787890100858963088,0.8527401286
1787890100866659546,0.149,,,,1787890100866659546,0.8535097744
1787890100874356004,0.167,,,,1787890100874356004,0.8542794202
1787890100882052462,0.192,,,,1787890100882052462,0.855049066
1787890100889748920,0.226,,,,1787890100889748920,0.8558187118
1787890100897445378,0.254,,,,1787890100897445378,0.8565883576
1787890100905141836,0.279,,,,1787890100905141836,0.8573580034
1787890100912838294,0.294,,,,1787890100912838294,0.8581276492
1787890100920534752,0.301,,,,1787890100920534752,0.858897295
1787890100928231210,0.301,,,,1787890100928231210,0.8596669408
1787890100935927668,0.284,,,,1787890100935927668,0.8604365866
1787890100943624126,0.246,,,,1787890100943624126,0.8612062324
1787890100951320584,0.209,,,,1787890100951320584,0.8619758782
1787890100959017042,0.139,,,,1787890100959017042,0.862745524
1787890100966713500,0.044,,,,1787890100966713500,0.8635151698
1787890100974409958,-0.037,,,,1787890100974409958,0.8642848156
1787890100982106416,-0.112,,,,1787890100982106416,0.8650544614
1787890100989802874,-0.182,,,,1787890100989802874,0.8658241072
1787890100997499332,-0.226,,,,1787890100997499332,0.866593753
1787890101005195790,-0.251,,,,1787890101005195790,0.8673633988
1787890101012892248,-0.264,,,,1787890101012892248,0.8681330446
1787890101020588706,-0.266,,,,1787890101020588706,0.8689026904
1787890101028285164,-0.264,,,,1787890101028285164,0.8696723362
1787890101035981622,-0.254,,,,1787890101035981622,0.870441982
1787890101043678080,-0.234,,,,1787890101043678080,0.8712116278
1787890101051374538,-0.214,,,,1787890101051374538,0.8719812736
1787890101059070996,-0.204,,,,1787890101059070996,0.8727509194
1787890101066767454,-0.192,,,,1787890101066767454,0.8735205652
1787890101074463912,-0.182,,,,1787890101074463912,0.874290211
1787890101082160370,-0.172,,,,1787890101082160370,0.8750598568
1787890101089856828,-0.164,,,,1787890101089856828,0.8758295026
1787890101097553286,-0.164,,,,1787890101097553286,0.8765991484
1787890101105249744,-0.162,,,,1787890101105249744,0.8773687942
1787890101112946202,-0.157,,,,1787890101112946202,0.87813844
1787890101120642660,-0.157,,,,1787890101120642660,0.8789080858
1787890101128339118,-0.149,,,,1787890101128339118,0.8796777316
1787890101136035576,-0.147,,,,1787890101136035576,0.8804473774
1787890101143732034,-0.157,,,,1787890101143732034,0.8812170232
1787890101151428492,-0.152,,,,1787890101151428492,0.881986669
1787890101159124950,-0.137,,,,1787890101159124950,0.8827563148
1787890101166821408,-0.137,,,,1787890101166821408,0.8835259606
1787890101174517866,-0.144,,,,1787890101174517866,0.8842956064
1787890101182214324,-0.149,,,,1787890101182214324,0.8850652522
1787890101189910782,-0.139,,,,1787890101189910782,0.885834898
1787890101197607240,-0.127,,,,1787890101197607240,0.8866045438
1787890101205303698,-0.124,,,,1787890101205303698,0.8873741896
1787890101213000156,-0.117,,,,1787890101213000156,0.8881438354
1787890101220696614,-0.097,,,,1787890101220696614,0.8889134812
1787890101228393072,-0.092,,,,1787890101228393072,0.889683127
1787890101236089530,-0.104,,,,1787890101236089530,0.8904527728
1787890101243785988,-0.107,,,,1787890101243785988,0.8912224186
1787890101251482446,-0.094,,,,1787890101251482446,0.8919920644
1787890101259178904,-0.084,,,,1787890101259178904,0.8927617102
1787890101266875362,-0.082,,,,1787890101266875362,0.893531356
1787890101274571820,-0.079,,,,1787890101274571820,0.8943010018
1787890101282268278,-0.084,,,,1787890101282268278,0.8950706476
1787890101289964736,-0.097,,,,1787890101289964736,0.8958402934
1787890101297661194,-0.097,,,,1787890101297661194,0.8966099392
1787890101305357652,-0.089,,,,1787890101305357652,0.897379585
1787890101313054110,-0.084,,,,1787890101313054110,0.8981492308
1787890101320750602,-0.092,90.0,680.0,,1787890101320750602,0.89891888
1787890101328446642,-0.089,,662.0,,1787890101328446642,0.899688484
1787890101336142682,-0.072,,,,1787890101336142682,0.900458088
1787890101343838722,-0.077,,,,1787890101343838722,0.901227692
1787890101351534762,-0.089,,,,1787890101351534762,0.901997296
1787890101359230802,-0.072,,,,1787890101359230802,0.9027669
1787890101366926842,-0.054,,,,1787890101366926842,0.903536504
1787890101374622882,0.062,,,,1787890101374622882,0.904306108
1787890101382318922,0.501,,,,1787890101382318922,0.905075712
1787890101390014962,0.835,,,,1787890101390014962,0.905845316
1787890101397711002,0.434,,,,1787890101397711002,0.90661492
1787890101405407042,-0.301,,,,1787890101405407042,0.907384524
1787890101413103082,-0.601,,,,1787890101413103082,0.908154128
1787890101420799122,-0.359,,,,1787890101420799122,0.908923732
1787890101428495162,-0.119,,,,1787890101428495162,0.909693336
1787890101436191202,-0.137,,,,1787890101436191202,0.91046294
1787890101443887242,-0.099,,,,1787890101443887242,0.911232544
1787890101451583282,-0.014,,,,1787890101451583282,0.912002148
1787890101459279322,-0.034,,,,1787890101459279322,0.912771752
1787890101466975362,-0.037,,,,1787890101466975362,0.913541356
1787890101474671402,0.0,,,,1787890101474671402,0.91431096
1787890101482367442,-0.009,,,,1787890101482367442,0.915080564
1787890101490063482,-0.014,,,,1787890101490063482,0.915850168
1787890101497759522,0.009,,,,1787890101497759522,0.916619772
1787890101505455562,0.012,,,,1787890101505455562,0.917389376
1787890101513151602,0.007,,,,1787890101513151602,0.91815898
1787890101520847642,0.024,,,,1787890101520847642,0.918928584
1787890101528543682,0.042,,,,1787890101528543682,0.919698188
1787890101536239722,0.054,,,,1787890101536239722,0.920467792
1787890101543935762,0.077,,,,1787890101543935762,0.921237396
1787890101551631802,0.089,,,,1787890101551631802,0.922007
1787890101559327842,0.099,,,,1787890101559327842,0.922776604
1787890101567023882,0.129,,,,1787890101567023882,0.923546208
1787890101574719922,0.149,,,,1787890101574719922,0.924315812
1787890101582415962,0.137,,,,1787890101582415962,0.925085416
1787890101590112002,0.119,,,,1787890101590112002,0.92585502
1787890101597808042,0.124,,,,1787890101597808042,0.926624624
1787890101605504082,0.107,,,,1787890101605504082,0.927394228
1787890101613200122,0.059,,,,1787890101613200122,0.928163832
1787890101620896162,0.024,,,,1787890101620896162,0.928933436
1787890101628592202,-0.032,,,,1787890101628592202,0.92970304
1787890101636288242,-0.124,,,,1787890101636288242,0.930472644
1787890101643984282,-0.192,,,,1787890101643984282,0.931242248
1787890101651680322,-0.241,,,,1787890101651680322,0.932011852
1787890101659376362,-0.299,,,,1787890101659376362,0.932781456
1787890101667072402,-0.339,,,,1787890101667072402,0.93355106
1787890101674768442,-0.346,,,,1787890101674768442,0.934320664
1787890101682464482,-0.341,,,,1787890101682464482,0.935090268
1787890101690160522,-0.354,,,,1787890101690160522,0.935859872
1787890101697856562,-0.364,,,,1787890101697856562,0.936629476
1787890101705552602,-0.344,,,,1787890101705552602,0.93739908
1787890101713248642,-0.319,,,,1787890101713248642,0.938168684
1787890101720944682,-0.311,,,,1787890101720944682,0.938938288
1787890101728640722,-0.301,,,,1787890101728640722,0.939707892
1787890101736336762,-0.291,,,,1787890101736336762,0.940477496
1787890101744032802,-0.286,,,,1787890101744032802,0.9412471
1787890101751728842,-0.281,,,,1787890101751728842,0.942016704
1787890101759424882,-0.279,,,,1787890101759424882,0.942786308
1787890101767120922,-0.269,,,,1787890101767120922,0.943555912
1787890101774816962,-0.254,,,,1787890101774816962,0.944325516
1787890101782513002,-0.251,,,,1787890101782513002,0.94509512
1787890101790209042,-0.246,,,,1787890101790209042,0.945864724
1787890101797905082,-0.244,,,,1787890101797905082,0.946634328
1787890101805601122,-0.256,,,,1787890101805601122,0.947403932
1787890101813297162,-0.251,,,,1787890101813297162,0.948173536
1787890101820993202,-0.231,,,,1787890101820993202,0.94894314
1787890101828689242,-0.229,,,,1787890101828689242,0.949712744
1787890101836385282,-0.231,,,,1787890101836385282,0.950482348
1787890101844081322,-0.224,,,,1787890101844081322,0.951251952
1787890101851777362,-0.219,,,,1787890101851777362,0.952021556
1787890101859473402,-0.217,,,,1787890101859473402,0.95279116
1787890101867169442,-0.209,,,,1787890101867169442,0.953560764
1787890101874865482,-0.202,,,,1787890101874865482,0.954330368
1787890101882561550,-0.197,,,,1787890101882561550,0.9550999748
1787890101890257590,-0.184,,,,1787890101890257590,0.9558695788
1787890101897953630,-0.169,,,,1787890101897953630,0.9566391828
1787890101905649670,-0.159,,,,1787890101905649670,0.9574087868
1787890101913345710,-0.152,,,,1787890101913345710,0.9581783908
1787890101921041750,-0.127,,,,1787890101921041750,0.9589479948
1787890101928737790,-0.097,,,,1787890101928737790,0.9597175988
1787890101936433830,-0.097,,,,1787890101936433830,0.9604872028
1787890101944129870,-0.127,,,,1787890101944129870,0.9612568068
1787890101951825910,-0.147,,,,1787890101951825910,0.9620264108
1787890101959521950,-0.139,,,,1787890101959521950,0.9627960148
1787890101967217990,-0.122,,,,1787890101967217990,0.9635656188
1787890101974914030,-0.124,,,,1787890101974914030,0.9643352228
1787890101982610070,-0.134,,,,1787890101982610070,0.9651048268
1787890101990306110,-0.132,,,,1787890101990306110,0.9658744308
1787890101998002150,-0.122,,,,1787890101998002150,0.9666440348
1787890102005698190,-0.107,,,,1787890102005698190,0.9674136388
1787890102013394230,-0.094,,,,1787890102013394230,0.9681832428
1787890102021090270,-0.089,,,,1787890102021090270,0.9689528468
1787890102028786310,-0.002,,,,1787890102028786310,0.9697224508
1787890102036482350,0.341,,,,1787890102036482350,0.9704920548
1787890102044178390,0.785,,,,1787890102044178390,0.9712616588
1787890102051874430,0.653,,,,1787890102051874430,0.9720312628
1787890102059570470,-0.077,,,,1787890102059570470,0.9728008668
1787890102067266510,-0.553,,,,1787890102067266510,0.9735704708
1787890102074962550,-0.421,,,,1787890102074962550,0.9743400748
1787890102082658590,-0.107,,,,1787890102082658590,0.9751096788
1787890102090354630,-0.034,,,,1787890102090354630,0.9758792828
1787890102098050670,-0.049,,,,1787890102098050670,0.9766488868
1787890102105746710,0.024,,,,1787890102105746710,0.9774184908
1787890102113442750,0.052,,,,1787890102113442750,0.9781880948
1787890102121138790,0.037,,,,1787890102121138790,0.9789576988
1787890102128834830,0.067,,,,1787890102128834830,0.9797273028
1787890102136530870,0.092,,,,1787890102136530870,0.9804969068
1787890102144226910,0.092,,,,1787890102144226910,0.9812665108
1787890102151922950,0.109,,,,1787890102151922950,0.9820361148
1787890102159618990,0.132,,,,1787890102159618990,0.9828057188
1787890102167315030,0.142,,,,1787890102167315030,0.9835753228
1787890102175011070,0.147,,,,1787890102175011070,0.9843449268
1787890102182707110,0.162,,,,1787890102182707110,0.9851145308
1787890102190403150,0.197,,,,1787890102190403150,0.9858841348
1787890102198099190,0.221,,,,1787890102198099190,0.9866537388
1787890102205795230,0.226,,,,1787890102205795230,0.9874233428
1787890102213491270,0.236,,,,1787890102213491270,0.9881929468
1787890102221187310,0.251,,,,1787890102221187310,0.9889625508
1787890102228883350,0.269,,,,1787890102228883350,0.9897321548
1787890102236579390,0.276,,,,1787890102236579390,0.9905017588
1787890102244275430,0.264,,,,1787890102244275430,0.9912713628
1787890102251971470,0.239,,,,1787890102251971470,0.9920409668
1787890102259667510,0.202,,,,1787890102259667510,0.9928105708
1787890102267363550,0.162,,,,1787890102267363550,0.9935801748
1787890102275059590,0.114,,,,1787890102275059590,0.9943497788
1787890102282755630,0.042,,,,1787890102282755630,0.9951193828
1787890102290451670,-0.052,,,,1787890102290451670,0.9958889868
1787890102298147710,-0.129,,,,1787890102298147710,0.9966585908
1787890102305843750,-0.159,,,,1787890102305843750,0.9974281948
1787890102313539790,-0.177,,,,1787890102313539790,0.9981977988
1787890102321235830,-0.182,,,,1787890102321235830,0.9989674028
1787890102328931870,-0.167,,,,1787890102328931870,0.9997370068
1787890102336627910,-0.231,,,,1787890102336627910,1.0005066108
1787890102344323950,-0.361,,,,1787890102344323950,1.0012762148
1787890102352019990,-0.341,,,,1787890102352019990,1.0020458188
1787890102359716030,-0.229,,,,1787890102359716030,1.0028154228
1787890102367412070,-0.266,,,,1787890102367412070,1.0035850268
1787890102375108110,-0.386,,,,1787890102375108110,1.0043546308
1787890102382804150,-0.369,,,,1787890102382804150,1.0051242348
1787890102390500190,-0.276,,,,1787890102390500190,1.0058938388
1787890102398196230,-0.284,,,,1787890102398196230,1.0066634428
1787890102405892270,-0.336,,,,1787890102405892270,1.0074330468
1787890102413588310,-0.339,,,,1787890102413588310,1.0082026508
1787890102421284350,-0.326,,,,1787890102421284350,1.0089722548
1787890102428980390,-0.321,,,,1787890102428980390,1.0097418588
1787890102436676430,-0.256,,,,1787890102436676430,1.0105114628
1787890102444372498,-0.182,90.0,668.0,,1787890102444372498,1.0112810696
1787890102452068956,-0.246,,,,1787890102452068956,1.0120507154
1787890102459765414,-0.326,,,,1787890102459765414,1.0128203612
1787890102467461872,-0.281,,,,1787890102467461872,1.013590007
1787890102475158330,-0.236,,,,1787890102475158330,1.0143596528
1787890102482854788,-0.239,,,,1787890102482854788,1.0151292986
1787890102490551246,-0.226,,,,1787890102490551246,1.0158989444
1787890102498247704,-0.234,,,,1787890102498247704,1.0166685902
1787890102505944162,-0.264,,,,1787890102505944162,1.017438236
1787890102513640620,-0.244,,,,1787890102513640620,1.0182078818
1787890102521337078,-0.214,,,,1787890102521337078,1.0189775276
1787890102529033536,-0.226,,,,1787890102529033536,1.0197471734
1787890102536729994,-0.239,,,,1787890102536729994,1.0205168192
1787890102544426452,-0.221,,,,1787890102544426452,1.021286465
1787890102552122910,-0.197,,,,1787890102552122910,1.0220561108
1787890102559819368,-0.179,,,,1787890102559819368,1.0228257566
1787890102567515826,-0.152,,,,1787890102567515826,1.0235954024
1787890102575212284,-0.114,,,,1787890102575212284,1.0243650482
1787890102582908742,-0.107,,,,1787890102582908742,1.025134694
1787890102590605200,-0.132,,,,1787890102590605200,1.0259043398
1787890102598301658,-0.139,,,,1787890102598301658,1.0266739856
1787890102605998116,-0.124,,,,1787890102605998116,1.0274436314
1787890102613694574,-0.122,,,,1787890102613694574,1.0282132772
1787890102621391032,-0.109,,,,1787890102621391032,1.028982923
1787890102629087490,-0.084,,,,1787890102629087490,1.0297525688
1787890102636783948,-0.069,,,,1787890102636783948,1.0305222146
1787890102644480406,-0.064,,,,1787890102644480406,1.0312918604
1787890102652176864,-0.062,,,,1787890102652176864,1.0320615062
1787890102659873322,-0.044,,,,1787890102659873322,1.032831152
1787890102667569780,-0.002,,,,1787890102667569780,1.0336007978
1787890102675266238,0.042,,,,1787890102675266238,1.0343704436
1787890102682962696,0.184,,,,1787890102682962696,1.0351400894
1787890102690659154,0.608,,,,1787890102690659154,1.0359097352
1787890102698355612,0.97,,,,1787890102698355612,1.036679381
1787890102706052070,0.631,,,,1787890102706052070,1.0374490268
1787890102713748528,-0.159,,,,1787890102713748528,1.0382186726
1787890102721444986,-0.513,,,,1787890102721444986,1.0389883184
1787890102729141444,-0.231,,,,1787890102729141444,1.0397579642
1787890102736837902,0.042,,,,1787890102736837902,1.04052761
1787890102744534360,0.017,,,,1787890102744534360,1.0412972558
1787890102752230818,0.037,,,,1787890102752230818,1.0420669016
1787890102759927276,0.139,,,,1787890102759927276,1.0428365474
1787890102767623734,0.149,,,,1787890102767623734,1.0436061932
1787890102775320192,0.144,,,,1787890102775320192,1.044375839
1787890102783016650,0.177,,,,1787890102783016650,1.0451454848
1787890102790713108,0.182,,,,1787890102790713108,1.0459151306
1787890102798409566,0.184,,,,1787890102798409566,1.0466847764
1787890102806106024,0.214,,,,1787890102806106024,1.0474544222
1787890102813802482,0.231,,,,1787890102813802482,1.048224068
1787890102821498940,0.239,,,,1787890102821498940,1.0489937138
1787890102829195398,0.254,,,,1787890102829195398,1.0497633596
1787890102836891856,0.266,,,,1787890102836891856,1.0505330054
1787890102844588314,0.279,,,,1787890102844588314,1.0513026512
1787890102852284772,0.309,,,,1787890102852284772,1.052072297
1787890102859981230,0.339,,,,1787890102859981230,1.0528419428
1787890102867677688,0.351,,,,1787890102867677688,1.0536115886
1787890102875374146,0.364,,,,1787890102875374146,1.0543812344
1787890102883070604,0.391,,,,1787890102883070604,1.0551508802
1787890102890767062,0.401,,,,1787890102890767062,1.055920526
1787890102898463520,0.389,,,,1787890102898463520,1.0566901718
1787890102906159978,0.374,,,,1787890102906159978,1.0574598176
1787890102913856436,0.346,,,,1787890102913856436,1.0582294634
1787890102921552894,0.306,,,,1787890102921552894,1.0589991092
1787890102929249352,0.261,,,,1787890102929249352,1.059768755
1787890102936945810,0.189,,,,1787890102936945810,1.0605384008
1787890102944642268,0.102,,,,1787890102944642268,1.0613080466
1787890102952338726,0.037,,,,1787890102952338726,1.0620776924
1787890102960035184,-0.017,,,,1787890102960035184,1.0628473382
1787890102967731642,-0.069,,,,1787890102967731642,1.063616984
1787890102975428100,-0.102,,,,1787890102975428100,1.0643866298
1787890102983124558,-0.117,,,,1787890102983124558,1.0651562756
1787890102990821016,-0.132,,,,1787890102990821016,1.0659259214
1787890102998517474,-0.132,,,,1787890102998517474,1.0666955672
1787890103006213964,-0.124,,,,1787890103006213964,1.0674652162
1787890103013910004,-0.107,,,,1787890103013910004,1.0682348202
1787890103021606044,-0.092,,,,1787890103021606044,1.0690044242
1787890103029302084,-0.102,,,,1787890103029302084,1.0697740282
1787890103036998124,-0.109,,,,1787890103036998124,1.0705436322
1787890103044694164,-0.079,,,,1787890103044694164,1.0713132362
1787890103052390204,-0.052,,,,1787890103052390204,1.0720828402
1787890103060086244,-0.052,,,,1787890103060086244,1.0728524442
1787890103067782284,-0.077,,,,1787890103067782284,1.0736220482
1787890103075478324,-0.089,,,,1787890103075478324,1.0743916522
1787890103083174364,-0.064,,,,1787890103083174364,1.0751612562
1787890103090870404,-0.049,,,,1787890103090870404,1.0759308602
1787890103098566444,-0.037,,,,1787890103098566444,1.0767004642
1787890103106262484,0.009,,,,1787890103106262484,1.0774700682
1787890103113958524,0.0,,,,1787890103113958524,1.0782396722
1787890103121654564,-0.097,,,,1787890103121654564,1.0790092762
1787890103129350604,-0.169,,,,1787890103129350604,1.0797788802
1787890103137046644,-0.132,,,,1787890103137046644,1.0805484842
1787890103144742684,-0.124,,,,1787890103144742684,1.0813180882
1787890103152438724,-0.174,,,,1787890103152438724,1.0820876922
1787890103160134764,-0.137,,,,1787890103160134764,1.0828572962
1787890103167830804,-0.082,,,,1787890103167830804,1.0836269002
1787890103175526844,-0.114,,,,1787890103175526844,1.0843965042
1787890103183222884,-0.189,,,,1787890103183222884,1.0851661082
1787890103190918924,-0.231,,,,1787890103190918924,1.0859357122
1787890103198614964,-0.241,,,,1787890103198614964,1.0867053162
1787890103206311004,-0.234,,,,1787890103206311004,1.0874749202
1787890103214007044,-0.189,,,,1787890103214007044,1.0882445242
1787890103221703084,-0.132,,,,1787890103221703084,1.0890141282
1787890103229399124,-0.102,,,,1787890103229399124,1.0897837322
1787890103237095164,-0.114,,,,1787890103237095164,1.0905533362
1787890103244791204,-0.134,,,,1787890103244791204,1.0913229402
1787890103252487244,-0.109,,,,1787890103252487244,1.0920925442
1787890103260183284,-0.084,,,,1787890103260183284,1.0928621482
1787890103267879324,-0.109,,,,1787890103267879324,1.0936317522
1787890103275575364,-0.127,,,,1787890103275575364,1.0944013562
1787890103283271404,-0.102,,,,1787890103283271404,1.0951709602
1787890103290967444,-0.082,,,,1787890103290967444,1.0959405642
1787890103298663484,-0.084,,,,1787890103298663484,1.0967101682
1787890103306359524,-0.069,,,,1787890103306359524,1.0974797722
1787890103314055564,-0.044,,,,1787890103314055564,1.0982493762
1787890103321751604,-0.002,,,,1787890103321751604,1.0990189802
1787890103329447644,0.214,,,,1787890103329447644,1.0997885842
1787890103337143684,0.6900000000000001,,,,1787890103337143684,1.1005581882
1787890103344839724,0.947,,,,1787890103344839724,1.1013277922
1787890103352535764,0.446,,,,1787890103352535764,1.1020973962
1787890103360231804,-0.396,,,,1787890103360231804,1.1028670002
1787890103367927844,-0.668,,,,1787890103367927844,1.1036366042
1787890103375623884,-0.296,,,,1787890103375623884,1.1044062082
1787890103383319924,-0.059,,,,1787890103383319924,1.1051758122
1787890103391015964,-0.109,,,,1787890103391015964,1.1059454162
1787890103398712004,-0.034,,,,1787890103398712004,1.1067150202
1787890103406408044,0.064,,,,1787890103406408044,1.1074846242
1787890103414104084,0.042,,,,1787890103414104084,1.1082542282
1787890103421800124,0.072,,,,1787890103421800124,1.1090238322
1787890103429496164,0.127,,,,1787890103429496164,1.1097934362
1787890103437192204,0.107,,,,1787890103437192204,1.1105630402
1787890103444888244,0.112,,,,1787890103444888244,1.1113326442
1787890103452584284,0.142,,,,1787890103452584284,1.1121022482
1787890103460280324,0.139,,,,1787890103460280324,1.1128718522
1787890103467976364,0.167,,,,1787890103467976364,1.1136414562
1787890103475672404,0.212,,,,1787890103475672404,1.1144110602
1787890103483368444,0.226,,,,1787890103483368444,1.1151806642
1787890103491064484,0.241,,,,1787890103491064484,1.1159502682
1787890103498760524,0.266,,,,1787890103498760524,1.1167198722
1787890103506456564,0.299,,,,1787890103506456564,1.1174894762
1787890103514152604,0.346,,,,1787890103514152604,1.1182590802
1787890103521848644,0.366,,,,1787890103521848644,1.1190286842
1787890103529544684,0.369,,,,1787890103529544684,1.1197982882
1787890103537240724,0.384,,,,1787890103537240724,1.1205678922
1787890103544936764,0.371,,,,1787890103544936764,1.1213374962
1787890103552632804,0.341,,,,1787890103552632804,1.1221071002
1787890103560328844,0.341,,,,1787890103560328844,1.1228767042
1787890103568024912,0.299,90.0,664.0,,1787890103568024912,1.123646311
1787890103575720952,0.212,,656.0,,1787890103575720952,1.124415915
1787890103583416992,0.147,,,,1787890103583416992,1.125185519
1787890103591113032,0.054,,,,1787890103591113032,1.125955123
1787890103598809072,-0.042,,,,1787890103598809072,1.126724727
1787890103606505112,-0.074,,,,1787890103606505112,1.127494331
1787890103614201152,-0.117,,,,1787890103614201152,1.128263935
1787890103621897192,-0.177,,,,1787890103621897192,1.129033539
1787890103629593232,-0.189,,,,1787890103629593232,1.129803143
1787890103637289272,-0.174,,,,1787890103637289272,1.130572747
1787890103644985312,-0.182,,,,1787890103644985312,1.131342351
1787890103652681352,-0.182,,,,1787890103652681352,1.132111955
1787890103660377392,-0.139,,,,1787890103660377392,1.132881559
1787890103668073432,-0.124,,,,1787890103668073432,1.133651163
1787890103675769472,-0.149,,,,1787890103675769472,1.134420767
1787890103683465512,-0.142,,,,1787890103683465512,1.135190371
1787890103691161552,-0.132,,,,1787890103691161552,1.135959975
1787890103698857592,-0.119,,,,1787890103698857592,1.136729579
1787890103706553632,-0.077,,,,1787890103706553632,1.137499183
1787890103714249672,-0.077,,,,1787890103714249672,1.138268787
1787890103721945712,-0.102,,,,1787890103721945712,1.139038391
1787890103729641752,-0.104,,,,1787890103729641752,1.139807995
1787890103737337792,-0.104,,,,1787890103737337792,1.140577599
1787890103745033832,-0.109,,,,1787890103745033832,1.141347203
1787890103752729872,-0.117,,,,1787890103752729872,1.142116807
1787890103760425912,-0.122,,,,1787890103760425912,1.142886411
1787890103768121952,-0.117,,,,1787890103768121952,1.143656015
1787890103775817992,-0.109,,,,1787890103775817992,1.144425619
1787890103783514032,-0.124,,,,1787890103783514032,1.145195223
1787890103791210072,-0.147,,,,1787890103791210072,1.145964827
1787890103798906112,-0.122,,,,1787890103798906112,1.146734431
1787890103806602152,-0.087,,,,1787890103806602152,1.147504035
1787890103814298192,-0.099,,,,1787890103814298192,1.148273639
1787890103821994232,-0.119,,,,1787890103821994232,1.149043243
1787890103829690272,-0.119,,,,1787890103829690272,1.149812847
1787890103837386312,-0.132,,,,1787890103837386312,1.150582451
1787890103845082352,-0.144,,,,1787890103845082352,1.151352055
1787890103852778392,-0.124,,,,1787890103852778392,1.152121659
1787890103860474432,-0.102,,,,1787890103860474432,1.152891263
1787890103868170472,-0.119,,,,1787890103868170472,1.153660867
1787890103875866512,-0.169,,,,1787890103875866512,1.154430471
1787890103883562552,-0.144,,,,1787890103883562552,1.155200075
1787890103891258592,-0.087,,,,1787890103891258592,1.155969679
1787890103898954632,-0.139,,,,1787890103898954632,1.156739283
1787890103906650672,-0.192,,,,1787890103906650672,1.157508887
1787890103914346712,-0.167,,,,1787890103914346712,1.158278491
1787890103922042752,-0.139,,,,1787890103922042752,1.159048095
1787890103929738792,-0.089,,,,1787890103929738792,1.159817699
1787890103937434832,0.199,,,,1787890103937434832,1.160587303
1787890103945130872,0.708,,,,1787890103945130872,1.161356907
1787890103952826912,0.77,,,,1787890103952826912,1.162126511
1787890103960522952,0.087,,,,1787890103960522952,1.162896115
1787890103968218992,-0.646,,,,1787890103968218992,1.163665719
1787890103975915032,-0.675,,,,1787890103975915032,1.164435323
1787890103983611072,-0.304,,,,1787890103983611072,1.165204927
1787890103991307112,-0.266,,,,1787890103991307112,1.165974531
1787890103999003152,-0.364,,,,1787890103999003152,1.166744135
1787890104006699192,-0.249,,,,1787890104006699192,1.167513739
1787890104014395232,-0.152,,,,1787890104014395232,1.168283343
1787890104022091272,-0.199,,,,1787890104022091272,1.169052947
1787890104029787312,-0.219,,,,1787890104029787312,1.169822551
1787890104037483352,-0.119,,,,1787890104037483352,1.170592155
1787890104045179392,-0.057,,,,1787890104045179392,1.171361759
1787890104052875432,-0.107,,,,1787890104052875432,1.172131363
1787890104060571472,-0.119,,,,1787890104060571472,1.172900967
1787890104068267512,-0.037,,,,1787890104068267512,1.173670571
1787890104075963552,-0.002,,,,1787890104075963552,1.174440175
1787890104083659592,-0.027,,,,1787890104083659592,1.175209779
1787890104091355632,0.0,,,,1787890104091355632,1.175979383
1787890104099051672,0.037,,,,1787890104099051672,1.176748987
1787890104106747712,0.037,,,,1787890104106747712,1.177518591
1787890104114443752,0.062,,,,1787890104114443752,1.178288195
1787890104122139792,0.107,,,,1787890104122139792,1.179057799
1787890104129835860,0.124,,,,1787890104129835860,1.1798274058
1787890104137532318,0.134,,,,1787890104137532318,1.1805970516
1787890104145228776,0.139,,,,1787890104145228776,1.1813666974
1787890104152925234,0.119,,,,1787890104152925234,1.1821363432
1787890104160621692,0.094,,,,1787890104160621692,1.182905989
1787890104168318150,0.074,,,,1787890104168318150,1.1836756348
1787890104176014608,0.029,,,,1787890104176014608,1.1844452806
1787890104183711066,-0.037,,,,1787890104183711066,1.1852149264
1787890104191407524,-0.122,,,,1787890104191407524,1.1859845722
1787890104199103982,-0.194,,,,1787890104199103982,1.186754218
1787890104206800440,-0.231,,,,1787890104206800440,1.1875238638
1787890104214496898,-0.274,,,,1787890104214496898,1.1882935096
1787890104222193356,-0.311,,,,1787890104222193356,1.1890631554
1787890104229889814,-0.309,,,,1787890104229889814,1.1898328012
1787890104237586272,-0.301,,,,1787890104237586272,1.190602447
1787890104245282730,-0.296,,,,1787890104245282730,1.1913720928
1787890104252979188,-0.276,,,,1787890104252979188,1.1921417386
1787890104260675646,-0.254,,,,1787890104260675646,1.1929113844
1787890104268372104,-0.246,,,,1787890104268372104,1.1936810302
1787890104276068562,-0.246,,,,1787890104276068562,1.194450676
1787890104283765020,-0.226,,,,1787890104283765020,1.1952203218
1787890104291461478,-0.209,,,,1787890104291461478,1.1959899676
1787890104299157936,-0.202,,,,1787890104299157936,1.1967596134
1787890104306854394,-0.199,,,,1787890104306854394,1.1975292592
1787890104314550852,-0.189,,,,1787890104314550852,1.198298905
1787890104322247310,-0.167,,,,1787890104322247310,1.1990685508
1787890104329943768,-0.162,,,,1787890104329943768,1.1998381966
1787890104337640226,-0.167,,,,1787890104337640226,1.2006078424
1787890104345336684,-0.159,,,,1787890104345336684,1.2013774882
1787890104353033142,-0.157,,,,1787890104353033142,1.202147134
1787890104360729600,-0.167,,,,1787890104360729600,1.2029167798
1787890104368426058,-0.167,,,,1787890104368426058,1.2036864256
1787890104376122516,-0.154,,,,1787890104376122516,1.2044560714
1787890104383818974,-0.157,,,,1787890104383818974,1.2052257172
1787890104391515432,-0.162,,,,1787890104391515432,1.205995363
1787890104399211890,-0.147,,,,1787890104399211890,1.2067650088
1787890104406908348,-0.134,,,,1787890104406908348,1.2075346546
1787890104414604806,-0.134,,,,1787890104414604806,1.2083043004
1787890104422301264,-0.134,,,,1787890104422301264,1.2090739462
1787890104429997722,-0.122,,,,1787890104429997722,1.209843592
1787890104437694180,-0.099,,,,1787890104437694180,1.2106132378
1787890104445390638,-0.092,,,,1787890104445390638,1.2113828836
1787890104453087096,-0.109,,,,1787890104453087096,1.2121525294
1787890104460783554,-0.129,,,,1787890104460783554,1.2129221752
1787890104468480012,-0.127,,,,1787890104468480012,1.213691821
1787890104476176470,-0.104,,,,1787890104476176470,1.2144614668
1787890104483872928,-0.094,,,,1787890104483872928,1.2152311126
1787890104491569386,-0.099,,,,1787890104491569386,1.2160007584
1787890104499265844,-0.084,,,,1787890104499265844,1.2167704042
1787890104506962302,-0.062,,,,1787890104506962302,1.21754005
1787890104514658760,-0.057,,,,1787890104514658760,1.2183096958
1787890104522355218,-0.042,,,,1787890104522355218,1.2190793416
1787890104530051676,-0.024,,,,1787890104530051676,1.2198489874
1787890104537748134,0.092,,,,1787890104537748134,1.2206186332
1787890104545444592,0.543,,,,1787890104545444592,1.221388279
1787890104553141050,0.937,,,,1787890104553141050,1.2221579248
1787890104560837508,0.591,,,,1787890104560837508,1.2229275706
1787890104568533966,-0.144,,,,1787890104568533966,1.2236972164
1787890104576230424,-0.441,,,,1787890104576230424,1.2244668622
1787890104583926882,-0.209,,,,1787890104583926882,1.225236508
1787890104591623340,-0.007,,,,1787890104591623340,1.2260061538
1787890104599319798,-0.042,,,,1787890104599319798,1.2267757996
1787890104607016256,-0.012,,,,1787890104607016256,1.2275454454
1787890104614712714,0.072,,,,1787890104614712714,1.2283150912
1787890104622409172,0.057,,,,1787890104622409172,1.229084737
1787890104630105630,0.042,,,,1787890104630105630,1.2298543828
1787890104637802088,0.069,,,,1787890104637802088,1.2306240286
1787890104645498546,0.074,,,,1787890104645498546,1.2313936744
1787890104653195004,0.087,,,,1787890104653195004,1.2321633202
1787890104660891462,0.117,,,,1787890104660891462,1.232932966
1787890104668587920,0.127,,,,1787890104668587920,1.2337026118
1787890104676284378,0.127,,,,1787890104676284378,1.2344722576
1787890104683980836,0.142,,,,1787890104683980836,1.2352419034
1787890104691677328,0.162,90.0,652.0,,1787890104691677328,1.2360115526
1787890104699373368,0.184,,,,1787890104699373368,1.2367811566
1787890104707069408,0.217,,,,1787890104707069408,1.2375507606
1787890104714765448,0.244,,,,1787890104714765448,1.2383203646
1787890104722461488,0.259,,,,1787890104722461488,1.2390899686
1787890104730157528,0.279,,,,1787890104730157528,1.2398595726
1787890104737853568,0.311,,,,1787890104737853568,1.2406291766
1787890104745549608,0.329,,,,1787890104745549608,1.2413987806
1787890104753245648,0.321,,,,1787890104753245648,1.2421683846
1787890104760941688,0.301,,,,1787890104760941688,1.2429379886
1787890104768637728,0.274,,,,1787890104768637728,1.2437075926
1787890104776333768,0.224,,,,1787890104776333768,1.2444771966
1787890104784029808,0.152,,,,1787890104784029808,1.2452468006
1787890104791725848,0.072,,,,1787890104791725848,1.2460164046
1787890104799421888,-0.004,,,,1787890104799421888,1.2467860086
1787890104807117928,-0.084,,,,1787890104807117928,1.2475556126
1787890104814813968,-0.149,,,,1787890104814813968,1.2483252166
1787890104822510008,-0.167,,,,1787890104822510008,1.2490948206
1787890104830206048,-0.174,,,,1787890104830206048,1.2498644246
1787890104837902088,-0.207,,,,1787890104837902088,1.2506340286
1787890104845598128,-0.224,,,,1787890104845598128,1.2514036326
1787890104853294168,-0.217,,,,1787890104853294168,1.2521732366
1787890104860990208,-0.207,,,,1787890104860990208,1.2529428406
1787890104868686248,-0.199,,,,1787890104868686248,1.2537124446
1787890104876382288,-0.189,,,,1787890104876382288,1.2544820486
1787890104884078328,-0.174,,,,1787890104884078328,1.2552516526
1787890104891774368,-0.159,,,,1787890104891774368,1.2560212566
1787890104899470408,-0.159,,,,1787890104899470408,1.2567908606
1787890104907166448,-0.157,,,,1787890104907166448,1.2575604646
1787890104914862488,-0.137,,,,1787890104914862488,1.2583300686
1787890104922558528,-0.124,,,,1787890104922558528,1.2590996726
1787890104930254568,-0.134,,,,1787890104930254568,1.2598692766
1787890104937950608,-0.134,,,,1787890104937950608,1.2606388806
1787890104945646648,-0.124,,,,1787890104945646648,1.2614084846
1787890104953342688,-0.129,,,,1787890104953342688,1.2621780886
1787890104961038728,-0.137,,,,1787890104961038728,1.2629476926
1787890104968734768,-0.129,,,,1787890104968734768,1.2637172966
1787890104976430808,-0.129,,,,1787890104976430808,1.2644869006
1787890104984126848,-0.129,,,,1787890104984126848,1.2652565046
1787890104991822888,-0.127,,,,1787890104991822888,1.2660261086
1787890104999518928,-0.137,,,,1787890104999518928,1.2667957126
1787890105007214968,-0.132,,,,1787890105007214968,1.2675653166
1787890105014911008,-0.114,,,,1787890105014911008,1.2683349206
1787890105022607048,-0.119,,,,1787890105022607048,1.2691045246
1787890105030303088,-0.117,,,,1787890105030303088,1.2698741286
1787890105037999128,-0.099,,,,1787890105037999128,1.2706437326
1787890105045695168,-0.089,,,,1787890105045695168,1.2714133366
1787890105053391208,-0.102,,,,1787890105053391208,1.2721829406
1787890105061087248,-0.134,,,,1787890105061087248,1.2729525446
1787890105068783288,-0.132,,,,1787890105068783288,1.2737221486
1787890105076479328,-0.094,,,,1787890105076479328,1.2744917526
1787890105084175368,-0.099,,,,1787890105084175368,1.2752613566
1787890105091871408,-0.139,,,,1787890105091871408,1.2760309606
1787890105099567448,-0.137,,,,1787890105099567448,1.2768005646
1787890105107263488,-0.114,,,,1787890105107263488,1.2775701686
1787890105114959528,-0.102,,,,1787890105114959528,1.2783397726
1787890105122655568,-0.094,,,,1787890105122655568,1.2791093766
1787890105130351608,-0.114,,,,1787890105130351608,1.2798789806
1787890105138047648,-0.072,,,,1787890105138047648,1.2806485846
1787890105145743688,0.311,,,,1787890105145743688,1.2814181886
1787890105153439728,0.868,,,,1787890105153439728,1.2821877926
1787890105161135768,0.8280000000000001,,,,1787890105161135768,1.2829573966
1787890105168831808,0.147,,,,1787890105168831808,1.2837270006
1787890105176527848,-0.451,,,,1787890105176527848,1.2844966046
1787890105184223888,-0.503,,,,1787890105184223888,1.2852662086
1787890105191919928,-0.244,,,,1787890105191919928,1.2860358126
1787890105199615968,-0.172,,,,1787890105199615968,1.2868054166
1787890105207312008,-0.194,,,,1787890105207312008,1.2875750206
1787890105215008048,-0.162,,,,1787890105215008048,1.2883446246
1787890105222704088,-0.164,,,,1787890105222704088,1.2891142286
1787890105230400128,-0.132,,,,1787890105230400128,1.2898838326
1787890105238096168,-0.067,,,,1787890105238096168,1.2906534366
1787890105245792208,-0.079,,,,1787890105245792208,1.2914230406
1787890105253488276,-0.097,91.0,646.0,,1787890105253488276,1.2921926474
1787890105261184316,-0.067,,605.0,,1787890105261184316,1.2929622514
1787890105268880356,-0.049,,,,1787890105268880356,1.2937318554
1787890105276576396,-0.027,,,,1787890105276576396,1.2945014594
1787890105284272436,-0.002,,,,1787890105284272436,1.2952710634
1787890105291968476,-0.002,,,,1787890105291968476,1.2960406674
1787890105299664516,0.007,,,,1787890105299664516,1.2968102714
1787890105307360556,0.034,,,,1787890105307360556,1.2975798754
1787890105315056596,0.049,,,,1787890105315056596,1.2983494794
1787890105322752636,0.067,,,,1787890105322752636,1.2991190834
1787890105330448676,0.099,,,,1787890105330448676,1.2998886874
1787890105338144716,0.124,,,,1787890105338144716,1.3006582914
1787890105345840756,0.124,,,,1787890105345840756,1.3014278954
1787890105353536796,0.114,,,,1787890105353536796,1.3021974994
1787890105361232836,0.094,,,,1787890105361232836,1.3029671034
1787890105368928876,0.064,,,,1787890105368928876,1.3037367074
1787890105376624916,0.042,,,,1787890105376624916,1.3045063114
1787890105384320956,0.012,,,,1787890105384320956,1.3052759154
1787890105392016996,-0.037,,,,1787890105392016996,1.3060455194
1787890105399713036,-0.104,,,,1787890105399713036,1.3068151234
1787890105407409076,-0.167,,,,1787890105407409076,1.3075847274
1787890105415105116,-0.207,,,,1787890105415105116,1.3083543314
1787890105422801156,-0.231,,,,1787890105422801156,1.3091239354
1787890105430497196,-0.269,,,,1787890105430497196,1.3098935394
1787890105438193236,-0.309,,,,1787890105438193236,1.3106631434
1787890105445889276,-0.326,,,,1787890105445889276,1.3114327474
1787890105453585316,-0.314,,,,1787890105453585316,1.3122023514
1787890105461281356,-0.294,,,,1787890105461281356,1.3129719554
1787890105468977396,-0.279,,,,1787890105468977396,1.3137415594
1787890105476673436,-0.269,,,,1787890105476673436,1.3145111634
1787890105484369476,-0.254,,,,1787890105484369476,1.3152807674
1787890105492065516,-0.234,,,,1787890105492065516,1.3160503714
1787890105499761556,-0.221,,,,1787890105499761556,1.3168199754
1787890105507457596,-0.207,,,,1787890105507457596,1.3175895794
1787890105515153636,-0.192,,,,1787890105515153636,1.3183591834
1787890105522849676,-0.189,,,,1787890105522849676,1.3191287874
1787890105530545716,-0.184,,,,1787890105530545716,1.3198983914
1787890105538241756,-0.167,,,,1787890105538241756,1.3206679954
1787890105545937796,-0.157,,,,1787890105545937796,1.3214375994
1787890105553633836,-0.162,,,,1787890105553633836,1.3222072034
1787890105561329876,-0.172,,,,1787890105561329876,1.3229768074
1787890105569025916,-0.164,,,,1787890105569025916,1.3237464114
1787890105576721956,-0.152,,,,1787890105576721956,1.3245160154
1787890105584417996,-0.159,,,,1787890105584417996,1.3252856194
1787890105592114036,-0.159,,,,1787890105592114036,1.3260552234
1787890105599810076,-0.134,,,,1787890105599810076,1.3268248274
1787890105607506116,-0.117,,,,1787890105607506116,1.3275944314
1787890105615202156,-0.109,,,,1787890105615202156,1.3283640354
1787890105622898196,-0.102,,,,1787890105622898196,1.3291336394
1787890105630594236,-0.097,,,,1787890105630594236,1.3299032434
1787890105638290276,-0.097,,,,1787890105638290276,1.3306728474
1787890105645986316,-0.107,,,,1787890105645986316,1.3314424514
1787890105653682356,-0.132,,,,1787890105653682356,1.3322120554
1787890105661378396,-0.137,,,,1787890105661378396,1.3329816594
1787890105669074436,-0.119,,,,1787890105669074436,1.3337512634
1787890105676770476,-0.117,,,,1787890105676770476,1.3345208674
1787890105684466516,-0.112,,,,1787890105684466516,1.3352904714
1787890105692162556,-0.104,,,,1787890105692162556,1.3360600754
1787890105699858596,-0.104,,,,1787890105699858596,1.3368296794
1787890105707554636,-0.102,,,,1787890105707554636,1.3375992834
1787890105715250676,-0.082,,,,1787890105715250676,1.3383688874
1787890105722946716,-0.049,,,,1787890105722946716,1.3391384914
1787890105730642756,0.069,,,,1787890105730642756,1.3399080954
1787890105738338796,0.466,,,,1787890105738338796,1.3406776994
1787890105746034836,0.865,,,,1787890105746034836,1.3414473034
1787890105753730876,0.606,,,,1787890105753730876,1.3422169074
1787890105761426916,-0.149,,,,1787890105761426916,1.3429865114
1787890105769122956,-0.5680000000000001,,,,1787890105769122956,1.3437561154
1787890105776818996,-0.389,,,,1787890105776818996,1.3445257194
1787890105784515036,-0.109,,,,1787890105784515036,1.3452953234
1787890105792211076,-0.089,,,,1787890105792211076,1.3460649274
1787890105799907116,-0.087,,,,1787890105799907116,1.3468345314
1787890105807603156,0.004,,,,1787890105807603156,1.3476041354
1787890105815299224,0.022,,,,1787890105815299224,1.3483737422
1787890105822995682,0.004,,,,1787890105822995682,1.349143388
1787890105830692140,0.037,,,,1787890105830692140,1.3499130338
1787890105838388598,0.057,,,,1787890105838388598,1.3506826796
1787890105846085056,0.059,,,,1787890105846085056,1.3514523254
1787890105853781514,0.077,,,,1787890105853781514,1.3522219712
1787890105861477972,0.092,,,,1787890105861477972,1.352991617
1787890105869174430,0.102,,,,1787890105869174430,1.3537612628
1787890105876870888,0.129,,,,1787890105876870888,1.3545309086
1787890105884567346,0.159,,,,1787890105884567346,1.3553005544
1787890105892263804,0.172,,,,1787890105892263804,1.3560702002
1787890105899960262,0.192,,,,1787890105899960262,1.356839846
1787890105907656720,0.221,,,,1787890105907656720,1.3576094918
1787890105915353178,0.244,,,,1787890105915353178,1.3583791376
1787890105923049636,0.261,,,,1787890105923049636,1.3591487834
1787890105930746094,0.276,,,,1787890105930746094,1.3599184292
1787890105938442552,0.279,,,,1787890105938442552,1.360688075
1787890105946139010,0.274,,,,1787890105946139010,1.3614577208
1787890105953835468,0.256,,,,1787890105953835468,1.3622273666
1787890105961531926,0.224,,,,1787890105961531926,1.3629970124
1787890105969228384,0.189,,,,1787890105969228384,1.3637666582
1787890105976924842,0.152,,,,1787890105976924842,1.364536304
1787890105984621300,0.089,,,,1787890105984621300,1.3653059498
1787890105992317758,0.007,,,,1787890105992317758,1.3660755956
1787890106000014216,-0.067,,,,1787890106000014216,1.3668452414
1787890106007710674,-0.119,,,,1787890106007710674,1.3676148872
1787890106015407132,-0.157,,,,1787890106015407132,1.368384533
1787890106023103590,-0.187,,,,1787890106023103590,1.3691541788
1787890106030800048,-0.207,,,,1787890106030800048,1.3699238246
1787890106038496506,-0.214,,,,1787890106038496506,1.3706934704
1787890106046192964,-0.214,,,,1787890106046192964,1.3714631162
1787890106053889422,-0.209,,,,1787890106053889422,1.372232762
1787890106061585880,-0.204,,,,1787890106061585880,1.3730024078
1787890106069282338,-0.192,,,,1787890106069282338,1.3737720536
1787890106076978796,-0.177,,,,1787890106076978796,1.3745416994
1787890106084675254,-0.169,,,,1787890106084675254,1.3753113452
1787890106092371712,-0.167,,,,1787890106092371712,1.376080991
1787890106100068170,-0.159,,,,1787890106100068170,1.3768506368
1787890106107764628,-0.152,,,,1787890106107764628,1.3776202826
1787890106115461086,-0.154,,,,1787890106115461086,1.3783899284
1787890106123157544,-0.152,,,,1787890106123157544,1.3791595742
1787890106130854002,-0.144,,,,1787890106130854002,1.37992922
1787890106138550460,-0.144,,,,1787890106138550460,1.3806988658
1787890106146246918,-0.149,,,,1787890106146246918,1.3814685116
1787890106153943376,-0.149,,,,1787890106153943376,1.3822381574
1787890106161639834,-0.144,,,,1787890106161639834,1.3830078032
1787890106169336292,-0.144,,,,1787890106169336292,1.383777449
1787890106177032750,-0.152,,,,1787890106177032750,1.3845470948
1787890106184729208,-0.152,,,,1787890106184729208,1.3853167406
1787890106192425666,-0.134,,,,1787890106192425666,1.3860863864
1787890106200122124,-0.122,,,,1787890106200122124,1.3868560322
1787890106207818582,-0.117,,,,1787890106207818582,1.387625678
1787890106215515040,-0.099,,,,1787890106215515040,1.3883953238
1787890106223211498,-0.084,,,,1787890106223211498,1.3891649696
1787890106230907956,-0.092,,,,1787890106230907956,1.3899346154
1787890106238604414,-0.114,,,,1787890106238604414,1.3907042612
1787890106246300872,-0.122,,,,1787890106246300872,1.391473907
1787890106253997330,-0.114,,,,1787890106253997330,1.3922435528
1787890106261693788,-0.107,,,,1787890106261693788,1.3930131986
1787890106269390246,-0.109,,,,1787890106269390246,1.3937828444
1787890106277086704,-0.112,,,,1787890106277086704,1.3945524902
1787890106284783162,-0.109,,,,1787890106284783162,1.395322136
1787890106292479620,-0.097,,,,1787890106292479620,1.3960917818
1787890106300176078,-0.082,,,,1787890106300176078,1.3968614276
1787890106307872536,-0.059,,,,1787890106307872536,1.3976310734
1787890106315568994,0.072,,,,1787890106315568994,1.3984007192
1787890106323265452,0.496,,,,1787890106323265452,1.399170365
1787890106330961910,0.8200000000000001,,,,1787890106330961910,1.3999400108
1787890106338658368,0.453,,,,1787890106338658368,1.4007096566
1787890106346354826,-0.234,,,,1787890106346354826,1.4014793024
1787890106354051284,-0.528,,,,1787890106354051284,1.4022489482
1787890106361747742,-0.324,,,,1787890106361747742,1.403018594
1787890106369444200,-0.094,,,,1787890106369444200,1.4037882398
1787890106377140690,-0.109,93.0,604.0,,1787890106377140690,1.4045578888
1787890106384836730,-0.104,,604.0,,1787890106384836730,1.4053274928
1787890106392532770,-0.022,,,,1787890106392532770,1.4060970968
1787890106400228810,-0.022,,,,1787890106400228810,1.4068667008
1787890106407924850,-0.027,,,,1787890106407924850,1.4076363048
1787890106415620890,0.009,,,,1787890106415620890,1.4084059088
1787890106423316930,0.022,,,,1787890106423316930,1.4091755128
1787890106431012970,0.019,,,,1787890106431012970,1.4099451168
1787890106438709010,0.042,,,,1787890106438709010,1.4107147208
1787890106446405050,0.069,,,,1787890106446405050,1.4114843248
1787890106454101090,0.084,,,,1787890106454101090,1.4122539288
1787890106461797130,0.104,,,,1787890106461797130,1.4130235328
1787890106469493170,0.134,,,,1787890106469493170,1.4137931368
1787890106477189210,0.152,,,,1787890106477189210,1.4145627408
1787890106484885250,0.167,,,,1787890106484885250,1.4153323448
1787890106492581290,0.192,,,,1787890106492581290,1.4161019488
1787890106500277330,0.226,,,,1787890106500277330,1.4168715528
1787890106507973370,0.254,,,,1787890106507973370,1.4176411568
1787890106515669410,0.261,,,,1787890106515669410,1.4184107608
1787890106523365450,0.264,,,,1787890106523365450,1.4191803648
1787890106531061490,0.254,,,,1787890106531061490,1.4199499688
1787890106538757530,0.221,,,,1787890106538757530,1.4207195728
1787890106546453570,0.194,,,,1787890106546453570,1.4214891768
1787890106554149610,0.157,,,,1787890106554149610,1.4222587808
1787890106561845650,0.084,,,,1787890106561845650,1.4230283848
1787890106569541690,0.0,,,,1787890106569541690,1.4237979888
1787890106577237730,-0.074,,,,1787890106577237730,1.4245675928
1787890106584933770,-0.134,,,,1787890106584933770,1.4253371968
1787890106592629810,-0.182,,,,1787890106592629810,1.4261068008
1787890106600325850,-0.207,,,,1787890106600325850,1.4268764048
1787890106608021890,-0.226,,,,1787890106608021890,1.4276460088
1787890106615717930,-0.246,,,,1787890106615717930,1.4284156128
1787890106623413970,-0.251,,,,1787890106623413970,1.4291852168
1787890106631110010,-0.241,,,,1787890106631110010,1.4299548208
1787890106638806050,-0.226,,,,1787890106638806050,1.4307244248
1787890106646502090,-0.219,,,,1787890106646502090,1.4314940288
1787890106654198130,-0.217,,,,1787890106654198130,1.4322636328
1787890106661894170,-0.214,,,,1787890106661894170,1.4330332368
1787890106669590210,-0.204,,,,1787890106669590210,1.4338028408
1787890106677286250,-0.192,,,,1787890106677286250,1.4345724448
1787890106684982290,-0.192,,,,1787890106684982290,1.4353420488
1787890106692678330,-0.194,,,,1787890106692678330,1.4361116528
1787890106700374370,-0.184,,,,1787890106700374370,1.4368812568
1787890106708070410,-0.169,,,,1787890106708070410,1.4376508608
1787890106715766450,-0.167,,,,1787890106715766450,1.4384204648
1787890106723462490,-0.174,,,,1787890106723462490,1.4391900688
1787890106731158530,-0.179,,,,1787890106731158530,1.4399596728
1787890106738854570,-0.177,,,,1787890106738854570,1.4407292768
1787890106746550610,-0.174,,,,1787890106746550610,1.4414988808
1787890106754246650,-0.177,,,,1787890106754246650,1.4422684848
1787890106761942690,-0.177,,,,1787890106761942690,1.4430380888
1787890106769638730,-0.179,,,,1787890106769638730,1.4438076928
1787890106777334770,-0.177,,,,1787890106777334770,1.4445772968
1787890106785030810,-0.164,,,,1787890106785030810,1.4453469008
1787890106792726850,-0.152,,,,1787890106792726850,1.4461165048
1787890106800422890,-0.124,,,,1787890106800422890,1.4468861088
1787890106808118930,-0.119,,,,1787890106808118930,1.4476557128
1787890106815814970,-0.159,,,,1787890106815814970,1.4484253168
1787890106823511010,-0.167,,,,1787890106823511010,1.4491949208
1787890106831207050,-0.132,,,,1787890106831207050,1.4499645248
1787890106838903090,-0.124,,,,1787890106838903090,1.4507341288
1787890106846599130,-0.142,,,,1787890106846599130,1.4515037328
1787890106854295170,-0.169,,,,1787890106854295170,1.4522733368
1787890106861991210,-0.177,,,,1787890106861991210,1.4530429408
1787890106869687250,-0.187,,,,1787890106869687250,1.4538125448
1787890106877383290,-0.202,,,,1787890106877383290,1.4545821488
1787890106885079330,-0.177,,,,1787890106885079330,1.4553517528
1787890106892775370,-0.162,,,,1787890106892775370,1.4561213568
1787890106900471410,-0.079,,,,1787890106900471410,1.4568909608
1787890106908167450,0.331,,,,1787890106908167450,1.4576605648
1787890106915863490,0.745,,,,1787890106915863490,1.4584301688
1787890106923559530,0.488,,,,1787890106923559530,1.4591997728
1787890106931255570,-0.179,,,,1787890106931255570,1.4599693768
1787890106938951638,-0.551,,,,1787890106938951638,1.4607389836
1787890106946647678,-0.478,,,,1787890106946647678,1.4615085876
1787890106954343718,-0.286,,,,1787890106954343718,1.4622781916
1787890106962039758,-0.239,,,,1787890106962039758,1.4630477956
1787890106969735798,-0.231,,,,1787890106969735798,1.4638173996
1787890106977431838,-0.167,,,,1787890106977431838,1.4645870036
1787890106985127878,-0.139,,,,1787890106985127878,1.4653566076
1787890106992823918,-0.142,,,,1787890106992823918,1.4661262116
1787890107000519958,-0.114,,,,1787890107000519958,1.4668958156
1787890107008215998,-0.089,,,,1787890107008215998,1.4676654196
1787890107015912038,-0.092,,,,1787890107015912038,1.4684350236
1787890107023608078,-0.082,,,,1787890107023608078,1.4692046276
1787890107031304118,-0.069,,,,1787890107031304118,1.4699742316
1787890107039000158,-0.067,,,,1787890107039000158,1.4707438356
1787890107046696198,-0.054,,,,1787890107046696198,1.4715134396
1787890107054392238,-0.027,,,,1787890107054392238,1.4722830436
1787890107062088278,-0.002,,,,1787890107062088278,1.4730526476
1787890107069784318,0.007,,,,1787890107069784318,1.4738222516
