UNIX Timestamp,ECG,HR,RR,Marker,time,norm_time
1787892177299167114,-0.215,79.0,642.0,,1787892177299167114,0.0
1787892177306863642,-0.21,,,,1787892177306863642,0.0007696528
1787892177314560170,-0.202,,,,1787892177314560170,0.0015393056
1787892177322256698,-0.21,,,,1787892177322256698,0.0023089584
1787892177329953226,-0.21,,,,1787892177329953226,0.0030786112
1787892177337649754,-0.193,,,,1787892177337649754,0.003848264
1787892177345346282,-0.19,,,,1787892177345346282,0.0046179168
1787892177353042810,-0.198,,,,1787892177353042810,0.0053875696
1787892177360739338,-0.185,,,,1787892177360739338,0.0061572224
1787892177368435866,-0.176,,,,1787892177368435866,0.0069268752
1787892177376132394,-0.173,,,,1787892177376132394,0.007696528
1787892177383828922,-0.166,,,,1787892177383828922,0.0084661808
1787892177391525450,-0.163,,,,1787892177391525450,0.0092358336
1787892177399221978,-0.173,,,,1787892177399221978,0.0100054864
1787892177406918506,-0.171,,,,1787892177406918506,0.0107751392
1787892177414615034,-0.161,,,,1787892177414615034,0.011544792
1787892177422311562,-0.173,,,,1787892177422311562,0.0123144448
1787892177430008090,-0.183,,,,1787892177430008090,0.0130840976
1787892177437704618,-0.173,,,,1787892177437704618,0.0138537504
1787892177445401146,-0.168,,,,1787892177445401146,0.0146234032
1787892177453097674,-0.149,,,,1787892177453097674,0.015393056
1787892177460794202,-0.11,,,,1787892177460794202,0.0161627088
1787892177468490730,-0.102,,,,1787892177468490730,0.0169323616
1787892177476187258,-0.124,,,,1787892177476187258,0.0177020144
1787892177483883786,-0.132,,,,1787892177483883786,0.0184716672
1787892177491580314,-0.136,,,,1787892177491580314,0.01924132
1787892177499276842,-0.139,,,,1787892177499276842,0.0200109728
1787892177506973370,-0.139,,,,1787892177506973370,0.0207806256
1787892177514669898,-0.139,,,,1787892177514669898,0.0215502784
1787892177522366426,-0.139,,,,1787892177522366426,0.0223199312
1787892177530062954,-0.154,,,,1787892177530062954,0.023089584
1787892177537759482,-0.2,,,,1787892177537759482,0.0238592368
1787892177545456010,-0.224,,,,1787892177545456010,0.0246288896
1787892177553152538,-0.048,,,,1787892177553152538,0.0253985424
1787892177560849066,0.342,,,,1787892177560849066,0.0261681952
1787892177568545594,0.718,,,,1787892177568545594,0.026937848
1787892177576242122,0.704,,,,1787892177576242122,0.0277075008
1787892177583938650,0.156,,,,1787892177583938650,0.0284771536
1787892177591635178,-0.283,,,,1787892177591635178,0.0292468064
1787892177599331706,-0.217,,,,1787892177599331706,0.0300164592
1787892177607028234,-0.149,,,,1787892177607028234,0.030786112
1787892177614724762,-0.217,,,,1787892177614724762,0.0315557648
1787892177622421290,-0.195,,,,1787892177622421290,0.0323254176
1787892177630117818,-0.161,,,,1787892177630117818,0.0330950704
1787892177637814346,-0.183,,,,1787892177637814346,0.0338647232
1787892177645510874,-0.173,,,,1787892177645510874,0.034634376
1787892177653207402,-0.144,,,,1787892177653207402,0.0354040288
1787892177660903930,-0.149,,,,1787892177660903930,0.0361736816
1787892177668600458,-0.158,,,,1787892177668600458,0.0369433344
1787892177676296986,-0.141,,,,1787892177676296986,0.0377129872
1787892177683993514,-0.129,,,,1787892177683993514,0.03848264
1787892177691690042,-0.127,,,,1787892177691690042,0.0392522928
1787892177699386570,-0.122,,,,1787892177699386570,0.0400219456
1787892177707083098,-0.102,,,,1787892177707083098,0.0407915984
1787892177714779626,-0.088,,,,1787892177714779626,0.0415612512
1787892177722476154,-0.075,,,,1787892177722476154,0.042330904
1787892177730172682,-0.061,,,,1787892177730172682,0.0431005568
1787892177737869210,-0.044,,,,1787892177737869210,0.0438702096
1787892177745565738,-0.031,,,,1787892177745565738,0.0446398624
1787892177753262266,-0.014,,,,1787892177753262266,0.0454095152
1787892177760958794,-0.004,,,,1787892177760958794,0.046179168
1787892177768655322,-0.004,,,,1787892177768655322,0.0469488208
1787892177776351850,0.0,,,,1787892177776351850,0.0477184736
1787892177784048378,0.009,,,,1787892177784048378,0.0484881264
1787892177791744906,0.002,,,,1787892177791744906,0.0492577792
1787892177799441434,-0.004,,,,1787892177799441434,0.050027432
1787892177807137962,-0.019,,,,1787892177807137962,0.0507970848
1787892177814834490,-0.063,,,,1787892177814834490,0.0515667376
1787892177822531018,-0.114,,,,1787892177822531018,0.0523363904
1787892177830227546,-0.149,,,,1787892177830227546,0.0531060432
1787892177837924074,-0.176,,,,1787892177837924074,0.053875696
1787892177845620602,-0.205,,,,1787892177845620602,0.0546453488
1787892177853317130,-0.224,,,,1787892177853317130,0.0554150016
1787892177861013668,-0.229,,,,1787892177861013668,0.0561846554
1787892177868710474,-0.239,,,,1787892177868710474,0.056954336
1787892177876407280,-0.249,,,,1787892177876407280,0.0577240166
1787892177884104086,-0.254,,,,1787892177884104086,0.0584936972
1787892177891800892,-0.249,,,,1787892177891800892,0.0592633778
1787892177899497698,-0.224,,,,1787892177899497698,0.0600330584
1787892177907194504,-0.202,,,,1787892177907194504,0.060802739
1787892177914891310,-0.202,,,,1787892177914891310,0.0615724196
1787892177922588116,-0.205,,,,1787892177922588116,0.0623421002
1787892177930284922,-0.202,,,,1787892177930284922,0.0631117808
1787892177937981728,-0.193,,,,1787892177937981728,0.0638814614
1787892177945678534,-0.183,,,,1787892177945678534,0.064651142
1787892177953375340,-0.173,,,,1787892177953375340,0.0654208226
1787892177961072146,-0.176,,,,1787892177961072146,0.0661905032
1787892177968768952,-0.178,,,,1787892177968768952,0.0669601838
1787892177976465758,-0.154,,,,1787892177976465758,0.0677298644
1787892177984162564,-0.139,,,,1787892177984162564,0.068499545
1787892177991859370,-0.158,,,,1787892177991859370,0.0692692256
1787892177999556176,-0.176,,,,1787892177999556176,0.0700389062
1787892178007252982,-0.173,,,,1787892178007252982,0.0708085868
1787892178014949788,-0.166,,,,1787892178014949788,0.0715782674
1787892178022646594,-0.171,,,,1787892178022646594,0.072347948
1787892178030343400,-0.178,,,,1787892178030343400,0.0731176286
1787892178038040206,-0.166,,,,1787892178038040206,0.0738873092
1787892178045737012,-0.154,,,,1787892178045737012,0.0746569898
1787892178053433818,-0.154,,,,1787892178053433818,0.0754266704
1787892178061130624,-0.144,,,,1787892178061130624,0.076196351
1787892178068827430,-0.11,,,,1787892178068827430,0.0769660316
1787892178076524236,-0.102,,,,1787892178076524236,0.0777357122
1787892178084221042,-0.129,,,,1787892178084221042,0.0785053928
1787892178091917848,-0.136,,,,1787892178091917848,0.0792750734
1787892178099614654,-0.139,,,,1787892178099614654,0.080044754
1787892178107311460,-0.158,,,,1787892178107311460,0.0808144346
1787892178115008266,-0.149,,,,1787892178115008266,0.0815841152
1787892178122705072,-0.124,,,,1787892178122705072,0.0823537958
1787892178130401878,-0.129,,,,1787892178130401878,0.0831234764
1787892178138098684,-0.146,,,,1787892178138098684,0.083893157
1787892178145795490,-0.21,,,,1787892178145795490,0.0846628376
1787892178153492296,-0.229,,,,1787892178153492296,0.0854325182
1787892178161189102,0.014,,,,1787892178161189102,0.0862021988
1787892178168885908,0.489,,,,1787892178168885908,0.0869718794
1787892178176582714,0.882,,,,1787892178176582714,0.08774156
1787892178184279520,0.755,,,,1787892178184279520,0.0885112406
1787892178191976326,0.105,,,,1787892178191976326,0.0892809212
1787892178199673132,-0.283,,,,1787892178199673132,0.0900506018
1787892178207369938,-0.183,,,,1787892178207369938,0.0908202824
1787892178215066744,-0.151,,,,1787892178215066744,0.091589963
1787892178222763550,-0.242,,,,1787892178222763550,0.0923596436
1787892178230460356,-0.215,,,,1787892178230460356,0.0931293242
1787892178238157162,-0.178,,,,1787892178238157162,0.0938990048
1787892178245853968,-0.2,,,,1787892178245853968,0.0946686854
1787892178253550774,-0.19,,,,1787892178253550774,0.095438366
1787892178261247580,-0.163,,,,1787892178261247580,0.0962080466
1787892178268944386,-0.166,,,,1787892178268944386,0.0969777272
1787892178276641192,-0.163,,,,1787892178276641192,0.0977474078
1787892178284337998,-0.149,,,,1787892178284337998,0.0985170884
1787892178292034804,-0.136,,,,1787892178292034804,0.099286769
1787892178299731610,-0.124,,,,1787892178299731610,0.1000564496
1787892178307428416,-0.114,,,,1787892178307428416,0.1008261302
1787892178315125222,-0.119,,,,1787892178315125222,0.1015958108
1787892178322822028,-0.117,,,,1787892178322822028,0.1023654914
1787892178330518834,-0.102,,,,1787892178330518834,0.103135172
1787892178338215640,-0.078,,,,1787892178338215640,0.1039048526
1787892178345912446,-0.066,,,,1787892178345912446,0.1046745332
1787892178353609252,-0.063,,,,1787892178353609252,0.1054442138
1787892178361306058,-0.046,,,,1787892178361306058,0.1062138944
1787892178369002864,-0.022,,,,1787892178369002864,0.106983575
1787892178376699670,-0.012,,,,1787892178376699670,0.1077532556
1787892178384396476,-0.019,,,,1787892178384396476,0.1085229362
1787892178392093282,-0.019,,,,1787892178392093282,0.1092926168
1787892178399790088,-0.012,,,,1787892178399790088,0.1100622974
1787892178407486894,-0.026,,,,1787892178407486894,0.110831978
1787892178415183700,-0.056,,,,1787892178415183700,0.1116016586
1787892178422880566,-0.095,81.0,629.0,,1787892178422880566,0.1123713452
1787892178430577233,-0.141,,622.0,,1787892178430577233,0.1131410119
1787892178438273900,-0.171,,,,1787892178438273900,0.1139106786
1787892178445970567,-0.188,,,,1787892178445970567,0.1146803453
1787892178453667234,-0.205,,,,1787892178453667234,0.115450012
1787892178461363901,-0.217,,,,1787892178461363901,0.1162196787
1787892178469060568,-0.227,,,,1787892178469060568,0.1169893454
1787892178476757235,-0.227,,,,1787892178476757235,0.1177590121
1787892178484453902,-0.217,,,,1787892178484453902,0.1185286788
1787892178492150569,-0.217,,,,1787892178492150569,0.1192983455
1787892178499847236,-0.217,,,,1787892178499847236,0.1200680122
1787892178507543903,-0.215,,,,1787892178507543903,0.1208376789
1787892178515240570,-0.217,,,,1787892178515240570,0.1216073456
1787892178522937237,-0.207,,,,1787892178522937237,0.1223770123
1787892178530633904,-0.195,,,,1787892178530633904,0.123146679
1787892178538330571,-0.195,,,,1787892178538330571,0.1239163457
1787892178546027238,-0.195,,,,1787892178546027238,0.1246860124
1787892178553723905,-0.185,,,,1787892178553723905,0.1254556791
1787892178561420572,-0.178,,,,1787892178561420572,0.1262253458
1787892178569117239,-0.18,,,,1787892178569117239,0.1269950125
1787892178576813906,-0.18,,,,1787892178576813906,0.1277646792
1787892178584510573,-0.176,,,,1787892178584510573,0.1285343459
1787892178592207240,-0.173,,,,1787892178592207240,0.1293040126
1787892178599903907,-0.176,,,,1787892178599903907,0.1300736793
1787892178607600574,-0.168,,,,1787892178607600574,0.130843346
1787892178615297241,-0.154,,,,1787892178615297241,0.1316130127
1787892178622993908,-0.154,,,,1787892178622993908,0.1323826794
1787892178630690575,-0.163,,,,1787892178630690575,0.1331523461
1787892178638387242,-0.156,,,,1787892178638387242,0.1339220128
1787892178646083909,-0.149,,,,1787892178646083909,0.1346916795
1787892178653780576,-0.151,,,,1787892178653780576,0.1354613462
1787892178661477243,-0.151,,,,1787892178661477243,0.1362310129
1787892178669173910,-0.154,,,,1787892178669173910,0.1370006796
1787892178676870577,-0.154,,,,1787892178676870577,0.1377703463
1787892178684567244,-0.144,,,,1787892178684567244,0.138540013
1787892178692263911,-0.141,,,,1787892178692263911,0.1393096797
1787892178699960578,-0.136,,,,1787892178699960578,0.1400793464
1787892178707657245,-0.107,,,,1787892178707657245,0.1408490131
1787892178715353912,-0.083,,,,1787892178715353912,0.1416186798
1787892178723050579,-0.088,,,,1787892178723050579,0.1423883465
1787892178730747246,-0.092,,,,1787892178730747246,0.1431580132
1787892178738443913,-0.09,,,,1787892178738443913,0.1439276799
1787892178746140580,-0.114,,,,1787892178746140580,0.1446973466
1787892178753837247,-0.134,,,,1787892178753837247,0.1454670133
1787892178761533914,-0.122,,,,1787892178761533914,0.14623668
1787892178769230581,-0.11,,,,1787892178769230581,0.1470063467
1787892178776927248,-0.112,,,,1787892178776927248,0.1477760134
1787892178784623915,-0.132,,,,1787892178784623915,0.1485456801
1787892178792320582,-0.185,,,,1787892178792320582,0.1493153468
1787892178800017249,-0.195,,,,1787892178800017249,0.1500850135
1787892178807713916,0.044,,,,1787892178807713916,0.1508546802
1787892178815410583,0.508,,,,1787892178815410583,0.1516243469
1787892178823107250,0.904,,,,1787892178823107250,0.1523940136
1787892178830803917,0.807,,,,1787892178830803917,0.1531636803
1787892178838500584,0.185,,,,1787892178838500584,0.153933347
1787892178846197251,-0.22,,,,1787892178846197251,0.1547030137
1787892178853893918,-0.132,,,,1787892178853893918,0.1554726804
1787892178861590585,-0.119,,,,1787892178861590585,0.1562423471
1787892178869287252,-0.237,,,,1787892178869287252,0.1570120138
1787892178876983919,-0.198,,,,1787892178876983919,0.1577816805
1787892178884680586,-0.146,,,,1787892178884680586,0.1585513472
1787892178892377253,-0.183,,,,1787892178892377253,0.1593210139
1787892178900073920,-0.178,,,,1787892178900073920,0.1600906806
1787892178907770587,-0.141,,,,1787892178907770587,0.1608603473
1787892178915467254,-0.129,,,,1787892178915467254,0.161630014
1787892178923163921,-0.114,,,,1787892178923163921,0.1623996807
1787892178930860588,-0.102,,,,1787892178930860588,0.1631693474
1787892178938557255,-0.114,,,,1787892178938557255,0.1639390141
1787892178946253922,-0.117,,,,1787892178946253922,0.1647086808
1787892178953950589,-0.092,,,,1787892178953950589,0.1654783475
1787892178961647256,-0.08,,,,1787892178961647256,0.1662480142
1787892178969343923,-0.075,,,,1787892178969343923,0.1670176809
1787892178977040590,-0.053,,,,1787892178977040590,0.1677873476
1787892178984737290,-0.034,,,,1787892178984737290,0.1685570176
1787892178992433957,-0.031,,,,1787892178992433957,0.1693266843
1787892179000130624,-0.022,,,,1787892179000130624,0.170096351
1787892179007827291,0.0,,,,1787892179007827291,0.1708660177
1787892179015523958,0.007,,,,1787892179015523958,0.1716356844
1787892179023220625,-0.002,,,,1787892179023220625,0.1724053511
1787892179030917292,-0.002,,,,1787892179030917292,0.1731750178
1787892179038613959,0.014,,,,1787892179038613959,0.1739446845
1787892179046310626,0.026,,,,1787892179046310626,0.1747143512
1787892179054007293,0.026,,,,1787892179054007293,0.1754840179
1787892179061703960,0.009,,,,1787892179061703960,0.1762536846
1787892179069400627,-0.026,,,,1787892179069400627,0.1770233513
1787892179077097294,-0.053,,,,1787892179077097294,0.177793018
1787892179084793961,-0.085,,,,1787892179084793961,0.1785626847
1787892179092490628,-0.129,,,,1787892179092490628,0.1793323514
1787892179100187295,-0.156,,,,1787892179100187295,0.1801020181
1787892179107883962,-0.156,,,,1787892179107883962,0.1808716848
1787892179115580629,-0.154,,,,1787892179115580629,0.1816413515
1787892179123277296,-0.158,,,,1787892179123277296,0.1824110182
1787892179130973963,-0.168,,,,1787892179130973963,0.1831806849
1787892179138670630,-0.163,,,,1787892179138670630,0.1839503516
1787892179146367297,-0.156,,,,1787892179146367297,0.1847200183
1787892179154063964,-0.154,,,,1787892179154063964,0.185489685
1787892179161760631,-0.144,,,,1787892179161760631,0.1862593517
1787892179169457298,-0.139,,,,1787892179169457298,0.1870290184
1787892179177153965,-0.141,,,,1787892179177153965,0.1877986851
1787892179184850632,-0.146,,,,1787892179184850632,0.1885683518
1787892179192547299,-0.149,,,,1787892179192547299,0.1893380185
1787892179200243966,-0.144,,,,1787892179200243966,0.1901076852
1787892179207940633,-0.136,,,,1787892179207940633,0.1908773519
1787892179215637300,-0.139,,,,1787892179215637300,0.1916470186
1787892179223333967,-0.141,,,,1787892179223333967,0.1924166853
1787892179231030634,-0.132,,,,1787892179231030634,0.193186352
1787892179238727301,-0.129,,,,1787892179238727301,0.1939560187
1787892179246423968,-0.141,,,,1787892179246423968,0.1947256854
1787892179254120635,-0.146,,,,1787892179254120635,0.1954953521
1787892179261817302,-0.139,,,,1787892179261817302,0.1962650188
1787892179269513969,-0.136,,,,1787892179269513969,0.1970346855
1787892179277210636,-0.136,,,,1787892179277210636,0.1978043522
1787892179284907303,-0.139,,,,1787892179284907303,0.1985740189
1787892179292603970,-0.136,,,,1787892179292603970,0.1993436856
1787892179300300637,-0.132,,,,1787892179300300637,0.2001133523
1787892179307997304,-0.134,,,,1787892179307997304,0.200883019
1787892179315693971,-0.129,,,,1787892179315693971,0.2016526857
1787892179323390638,-0.119,,,,1787892179323390638,0.2024223524
1787892179331087305,-0.122,,,,1787892179331087305,0.2031920191
1787892179338783972,-0.127,,,,1787892179338783972,0.2039616858
1787892179346480639,-0.124,,,,1787892179346480639,0.2047313525
1787892179354177306,-0.122,,,,1787892179354177306,0.2055010192
1787892179361873973,-0.122,,,,1787892179361873973,0.2062706859
1787892179369570640,-0.119,,,,1787892179369570640,0.2070403526
1787892179377267307,-0.119,,,,1787892179377267307,0.2078100193
1787892179384963974,-0.119,,,,1787892179384963974,0.208579686
1787892179392660641,-0.112,,,,1787892179392660641,0.2093493527
1787892179400357308,-0.11,,,,1787892179400357308,0.2101190194
1787892179408053975,-0.117,,,,1787892179408053975,0.2108886861
1787892179415750642,-0.105,,,,1787892179415750642,0.2116583528
1787892179423447309,-0.078,,,,1787892179423447309,0.2124280195
1787892179431143976,-0.066,,,,1787892179431143976,0.2131976862
1787892179438840643,-0.063,,,,1787892179438840643,0.2139673529
1787892179446537310,-0.063,,,,1787892179446537310,0.2147370196
1787892179454233977,-0.075,,,,1787892179454233977,0.2155066863
1787892179461930644,-0.092,,,,1787892179461930644,0.216276353
1787892179469627311,-0.1,,,,1787892179469627311,0.2170460197
1787892179477323978,-0.105,,,,1787892179477323978,0.2178156864
1787892179485020645,-0.1,,,,1787892179485020645,0.2185853531
1787892179492717312,-0.092,,,,1787892179492717312,0.2193550198
1787892179500413979,-0.112,,,,1787892179500413979,0.2201246865
1787892179508110646,-0.166,,,,1787892179508110646,0.2208943532
1787892179515807313,-0.122,,,,1787892179515807313,0.2216640199
1787892179523503980,0.141,,,,1787892179523503980,0.2224336866
1787892179531200647,0.547,,,,1787892179531200647,0.2232033533
1787892179538897314,0.836,,,,1787892179538897314,0.22397302
1787892179546594016,0.638,83.0,613.0,,1787892179546594016,0.2247426902
1787892179554290474,0.075,,,,1787892179554290474,0.225512336
1787892179561986932,-0.18,,,,1787892179561986932,0.2262819818
1787892179569683390,-0.105,,,,1787892179569683390,0.2270516276
1787892179577379848,-0.144,,,,1787892179577379848,0.2278212734
1787892179585076306,-0.22,,,,1787892179585076306,0.2285909192
1787892179592772764,-0.178,,,,1787892179592772764,0.229360565
1787892179600469222,-0.163,,,,1787892179600469222,0.2301302108
1787892179608165680,-0.18,,,,1787892179608165680,0.2308998566
1787892179615862138,-0.156,,,,1787892179615862138,0.2316695024
1787892179623558596,-0.132,,,,1787892179623558596,0.2324391482
1787892179631255054,-0.129,,,,1787892179631255054,0.233208794
1787892179638951512,-0.112,,,,1787892179638951512,0.2339784398
1787892179646647970,-0.1,,,,1787892179646647970,0.2347480856
1787892179654344428,-0.102,,,,1787892179654344428,0.2355177314
1787892179662040886,-0.102,,,,1787892179662040886,0.2362873772
1787892179669737344,-0.092,,,,1787892179669737344,0.237057023
1787892179677433802,-0.08,,,,1787892179677433802,0.2378266688
1787892179685130260,-0.075,,,,1787892179685130260,0.2385963146
1787892179692826718,-0.068,,,,1787892179692826718,0.2393659604
1787892179700523176,-0.053,,,,1787892179700523176,0.2401356062
1787892179708219634,-0.044,,,,1787892179708219634,0.240905252
1787892179715916092,-0.044,,,,1787892179715916092,0.2416748978
1787892179723612550,-0.041,,,,1787892179723612550,0.2424445436
1787892179731309008,-0.022,,,,1787892179731309008,0.2432141894
1787892179739005466,-0.009,,,,1787892179739005466,0.2439838352
1787892179746701924,-0.009,,,,1787892179746701924,0.244753481
1787892179754398382,-0.007,,,,1787892179754398382,0.2455231268
1787892179762094840,0.0,,,,1787892179762094840,0.2462927726
1787892179769791298,-0.002,,,,1787892179769791298,0.2470624184
1787892179777487756,-0.017,,,,1787892179777487756,0.2478320642
1787892179785184214,-0.053,,,,1787892179785184214,0.24860171
1787892179792880672,-0.09,,,,1787892179792880672,0.2493713558
1787892179800577130,-0.122,,,,1787892179800577130,0.2501410016
1787892179808273588,-0.151,,,,1787892179808273588,0.2509106474
1787892179815970046,-0.176,,,,1787892179815970046,0.2516802932
1787892179823666504,-0.195,,,,1787892179823666504,0.252449939
1787892179831362962,-0.205,,,,1787892179831362962,0.2532195848
1787892179839059420,-0.207,,,,1787892179839059420,0.2539892306
1787892179846755878,-0.207,,,,1787892179846755878,0.2547588764
1787892179854452336,-0.195,,,,1787892179854452336,0.2555285222
1787892179862148794,-0.193,,,,1787892179862148794,0.256298168
1787892179869845252,-0.202,,,,1787892179869845252,0.2570678138
1787892179877541710,-0.2,,,,1787892179877541710,0.2578374596
1787892179885238168,-0.188,,,,1787892179885238168,0.2586071054
1787892179892934626,-0.183,,,,1787892179892934626,0.2593767512
1787892179900631084,-0.183,,,,1787892179900631084,0.260146397
1787892179908327542,-0.183,,,,1787892179908327542,0.2609160428
1787892179916024000,-0.185,,,,1787892179916024000,0.2616856886
1787892179923720458,-0.183,,,,1787892179923720458,0.2624553344
1787892179931416916,-0.176,,,,1787892179931416916,0.2632249802
1787892179939113374,-0.171,,,,1787892179939113374,0.263994626
1787892179946809832,-0.173,,,,1787892179946809832,0.2647642718
1787892179954506290,-0.176,,,,1787892179954506290,0.2655339176
1787892179962202748,-0.173,,,,1787892179962202748,0.2663035634
1787892179969899206,-0.166,,,,1787892179969899206,0.2670732092
1787892179977595664,-0.168,,,,1787892179977595664,0.267842855
1787892179985292122,-0.176,,,,1787892179985292122,0.2686125008
1787892179992988580,-0.168,,,,1787892179992988580,0.2693821466
1787892180000685038,-0.161,,,,1787892180000685038,0.2701517924
1787892180008381496,-0.176,,,,1787892180008381496,0.2709214382
1787892180016077954,-0.171,,,,1787892180016077954,0.271691084
1787892180023774412,-0.154,,,,1787892180023774412,0.2724607298
1787892180031470870,-0.158,,,,1787892180031470870,0.2732303756
1787892180039167328,-0.156,,,,1787892180039167328,0.2740000214
1787892180046863786,-0.141,,,,1787892180046863786,0.2747696672
1787892180054560244,-0.141,,,,1787892180054560244,0.275539313
1787892180062256702,-0.144,,,,1787892180062256702,0.2763089588
1787892180069953160,-0.146,,,,1787892180069953160,0.2770786046
1787892180077649618,-0.154,,,,1787892180077649618,0.2778482504
1787892180085346076,-0.151,,,,1787892180085346076,0.2786178962
1787892180093042534,-0.141,,,,1787892180093042534,0.279387542
1787892180100738992,-0.136,,,,1787892180100738992,0.2801571878
1787892180108435482,-0.136,,,,1787892180108435482,0.2809268368
1787892180116132358,-0.136,,,,1787892180116132358,0.2816965244
1787892180123829234,-0.132,,,,1787892180123829234,0.282466212
1787892180131526110,-0.114,,,,1787892180131526110,0.2832358996
1787892180139222986,-0.107,,,,1787892180139222986,0.2840055872
1787892180146919862,-0.117,,,,1787892180146919862,0.2847752748
1787892180154616738,-0.105,,,,1787892180154616738,0.2855449624
1787892180162313614,-0.073,,,,1787892180162313614,0.28631465
1787892180170010490,-0.056,,,,1787892180170010490,0.2870843376
1787892180177707366,-0.061,,,,1787892180177707366,0.2878540252
1787892180185404242,-0.066,,,,1787892180185404242,0.2886237128
1787892180193101118,-0.08,,,,1787892180193101118,0.2893934004
1787892180200797994,-0.1,,,,1787892180200797994,0.290163088
1787892180208494870,-0.105,,,,1787892180208494870,0.2909327756
1787892180216191746,-0.097,,,,1787892180216191746,0.2917024632
1787892180223888622,-0.097,,,,1787892180223888622,0.2924721508
1787892180231585498,-0.107,,,,1787892180231585498,0.2932418384
1787892180239282374,-0.149,,,,1787892180239282374,0.294011526
1787892180246979250,-0.185,,,,1787892180246979250,0.2947812136
1787892180254676126,-0.051,,,,1787892180254676126,0.2955509012
1787892180262373002,0.313,,,,1787892180262373002,0.2963205888
1787892180270069878,0.738,,,,1787892180270069878,0.2970902764
1787892180277766754,0.848,,,,1787892180277766754,0.297859964
1787892180285463630,0.374,,,,1787892180285463630,0.2986296516
1787892180293160506,-0.156,,,,1787892180293160506,0.2993993392
1787892180300857382,-0.185,,,,1787892180300857382,0.3001690268
1787892180308554258,-0.112,,,,1787892180308554258,0.3009387144
1787892180316251134,-0.207,,,,1787892180316251134,0.301708402
1787892180323948010,-0.224,,,,1787892180323948010,0.3024780896
1787892180331644886,-0.173,,,,1787892180331644886,0.3032477772
1787892180339341762,-0.183,,,,1787892180339341762,0.3040174648
1787892180347038638,-0.193,,,,1787892180347038638,0.3047871524
1787892180354735514,-0.166,,,,1787892180354735514,0.30555684
1787892180362432390,-0.151,,,,1787892180362432390,0.3063265276
1787892180370129266,-0.151,,,,1787892180370129266,0.3070962152
1787892180377826142,-0.141,,,,1787892180377826142,0.3078659028
1787892180385523018,-0.134,,,,1787892180385523018,0.3086355904
1787892180393219894,-0.132,,,,1787892180393219894,0.309405278
1787892180400916770,-0.122,,,,1787892180400916770,0.3101749656
1787892180408613646,-0.105,,,,1787892180408613646,0.3109446532
1787892180416310522,-0.097,,,,1787892180416310522,0.3117143408
1787892180424007398,-0.097,,,,1787892180424007398,0.3124840284
1787892180431704274,-0.088,,,,1787892180431704274,0.313253716
1787892180439401150,-0.066,,,,1787892180439401150,0.3140234036
1787892180447098026,-0.048,,,,1787892180447098026,0.3147930912
1787892180454794902,-0.041,,,,1787892180454794902,0.3155627788
1787892180462491778,-0.031,,,,1787892180462491778,0.3163324664
1787892180470188654,-0.024,,,,1787892180470188654,0.317102154
1787892180477885530,-0.019,,,,1787892180477885530,0.3178718416
1787892180485582406,-0.017,,,,1787892180485582406,0.3186415292
1787892180493279282,-0.009,,,,1787892180493279282,0.3194112168
1787892180500976158,-0.004,,,,1787892180500976158,0.3201809044
1787892180508673034,-0.017,,,,1787892180508673034,0.320950592
1787892180516369910,-0.039,,,,1787892180516369910,0.3217202796
1787892180524066786,-0.073,,,,1787892180524066786,0.3224899672
1787892180531763662,-0.107,,,,1787892180531763662,0.3232596548
1787892180539460538,-0.144,,,,1787892180539460538,0.3240293424
1787892180547157414,-0.18,,,,1787892180547157414,0.32479903
1787892180554854290,-0.195,,,,1787892180554854290,0.3255687176
1787892180562551166,-0.205,,,,1787892180562551166,0.3263384052
1787892180570248042,-0.227,,,,1787892180570248042,0.3271080928
1787892180577944918,-0.234,,,,1787892180577944918,0.3278777804
1787892180585641794,-0.227,,,,1787892180585641794,0.328647468
1787892180593338670,-0.22,,,,1787892180593338670,0.3294171556
1787892180601035546,-0.215,,,,1787892180601035546,0.3301868432
1787892180608732422,-0.21,,,,1787892180608732422,0.3309565308
1787892180616429298,-0.202,,,,1787892180616429298,0.3317262184
1787892180624126174,-0.198,,,,1787892180624126174,0.332495906
1787892180631823050,-0.193,,,,1787892180631823050,0.3332655936
1787892180639519926,-0.18,,,,1787892180639519926,0.3340352812
1787892180647216802,-0.173,,,,1787892180647216802,0.3348049688
1787892180654913678,-0.163,,,,1787892180654913678,0.3355746564
1787892180662610554,-0.156,,,,1787892180662610554,0.336344344
1787892180670307464,-0.163,86.0,606.0,,1787892180670307464,0.337114035
1787892180678003922,-0.168,,646.0,,1787892180678003922,0.3378836808
1787892180685700380,-0.154,,,,1787892180685700380,0.3386533266
1787892180693396838,-0.146,,,,1787892180693396838,0.3394229724
1787892180701093296,-0.154,,,,1787892180701093296,0.3401926182
1787892180708789754,-0.151,,,,1787892180708789754,0.340962264
1787892180716486212,-0.144,,,,1787892180716486212,0.3417319098
1787892180724182670,-0.144,,,,1787892180724182670,0.3425015556
1787892180731879128,-0.141,,,,1787892180731879128,0.3432712014
1787892180739575586,-0.141,,,,1787892180739575586,0.3440408472
1787892180747272044,-0.139,,,,1787892180747272044,0.344810493
1787892180754968502,-0.134,,,,1787892180754968502,0.3455801388
1787892180762664960,-0.134,,,,1787892180762664960,0.3463497846
1787892180770361418,-0.134,,,,1787892180770361418,0.3471194304
1787892180778057876,-0.127,,,,1787892180778057876,0.3478890762
1787892180785754334,-0.124,,,,1787892180785754334,0.348658722
1787892180793450792,-0.127,,,,1787892180793450792,0.3494283678
1787892180801147250,-0.124,,,,1787892180801147250,0.3501980136
1787892180808843708,-0.127,,,,1787892180808843708,0.3509676594
1787892180816540166,-0.132,,,,1787892180816540166,0.3517373052
1787892180824236624,-0.122,,,,1787892180824236624,0.352506951
1787892180831933082,-0.097,,,,1787892180831933082,0.3532765968
1787892180839629540,-0.073,,,,1787892180839629540,0.3540462426
1787892180847325998,-0.073,,,,1787892180847325998,0.3548158884
1787892180855022456,-0.09,,,,1787892180855022456,0.3555855342
1787892180862718914,-0.1,,,,1787892180862718914,0.35635518
1787892180870415372,-0.107,,,,1787892180870415372,0.3571248258
1787892180878111830,-0.105,,,,1787892180878111830,0.3578944716
1787892180885808288,-0.1,,,,1787892180885808288,0.3586641174
1787892180893504746,-0.097,,,,1787892180893504746,0.3594337632
1787892180901201204,-0.11,,,,1787892180901201204,0.360203409
1787892180908897662,-0.156,,,,1787892180908897662,0.3609730548
1787892180916594120,-0.202,,,,1787892180916594120,0.3617427006
1787892180924290578,-0.063,,,,1787892180924290578,0.3625123464
1787892180931987036,0.344,,,,1787892180931987036,0.3632819922
1787892180939683494,0.807,,,,1787892180939683494,0.364051638
1787892180947379952,0.89,,,,1787892180947379952,0.3648212838
1787892180955076410,0.352,,,,1787892180955076410,0.3655909296
1787892180962772868,-0.188,,,,1787892180962772868,0.3663605754
1787892180970469326,-0.19,,,,1787892180970469326,0.3671302212
1787892180978165784,-0.107,,,,1787892180978165784,0.367899867
1787892180985862242,-0.2,,,,1787892180985862242,0.3686695128
1787892180993558700,-0.212,,,,1787892180993558700,0.3694391586
1787892181001255158,-0.168,,,,1787892181001255158,0.3702088044
1787892181008951616,-0.178,,,,1787892181008951616,0.3709784502
1787892181016648074,-0.178,,,,1787892181016648074,0.371748096
1787892181024344532,-0.151,,,,1787892181024344532,0.3725177418
1787892181032040990,-0.146,,,,1787892181032040990,0.3732873876
1787892181039737448,-0.146,,,,1787892181039737448,0.3740570334
1787892181047433906,-0.136,,,,1787892181047433906,0.3748266792
1787892181055130364,-0.124,,,,1787892181055130364,0.375596325
1787892181062826822,-0.122,,,,1787892181062826822,0.3763659708
1787892181070523280,-0.114,,,,1787892181070523280,0.3771356166
1787892181078219738,-0.102,,,,1787892181078219738,0.3779052624
1787892181085916196,-0.092,,,,1787892181085916196,0.3786749082
1787892181093612654,-0.08,,,,1787892181093612654,0.379444554
1787892181101309112,-0.066,,,,1787892181101309112,0.3802141998
1787892181109005570,-0.056,,,,1787892181109005570,0.3809838456
1787892181116702028,-0.041,,,,1787892181116702028,0.3817534914
1787892181124398486,-0.029,,,,1787892181124398486,0.3825231372
1787892181132094944,-0.012,,,,1787892181132094944,0.383292783
1787892181139791402,0.004,,,,1787892181139791402,0.3840624288
1787892181147487860,0.014,,,,1787892181147487860,0.3848320746
1787892181155184318,0.017,,,,1787892181155184318,0.3856017204
1787892181162880776,0.017,,,,1787892181162880776,0.3863713662
1787892181170577234,0.014,,,,1787892181170577234,0.387141012
1787892181178273692,0.004,,,,1787892181178273692,0.3879106578
1787892181185970150,-0.029,,,,1787892181185970150,0.3886803036
1787892181193666608,-0.073,,,,1787892181193666608,0.3894499494
1787892181201363066,-0.114,,,,1787892181201363066,0.3902195952
1787892181209059524,-0.149,,,,1787892181209059524,0.390989241
1787892181216755982,-0.168,,,,1787892181216755982,0.3917588868
1787892181224452440,-0.183,,,,1787892181224452440,0.3925285326
1787892181232148934,-0.2,87.0,715.0,,1787892181232148934,0.393298182
1787892181239845531,-0.202,,,,1787892181239845531,0.3940678417
1787892181247542128,-0.195,,,,1787892181247542128,0.3948375014
1787892181255238725,-0.195,,,,1787892181255238725,0.3956071611
1787892181262935322,-0.198,,,,1787892181262935322,0.3963768208
1787892181270631919,-0.188,,,,1787892181270631919,0.3971464805
1787892181278328516,-0.176,,,,1787892181278328516,0.3979161402
1787892181286025113,-0.173,,,,1787892181286025113,0.3986857999
1787892181293721710,-0.171,,,,1787892181293721710,0.3994554596
1787892181301418307,-0.163,,,,1787892181301418307,0.4002251193
1787892181309114904,-0.161,,,,1787892181309114904,0.400994779
1787892181316811501,-0.156,,,,1787892181316811501,0.4017644387
1787892181324508098,-0.154,,,,1787892181324508098,0.4025340984
1787892181332204695,-0.151,,,,1787892181332204695,0.4033037581
1787892181339901292,-0.146,,,,1787892181339901292,0.4040734178
1787892181347597889,-0.139,,,,1787892181347597889,0.4048430775
1787892181355294486,-0.134,,,,1787892181355294486,0.4056127372
1787892181362991083,-0.129,,,,1787892181362991083,0.4063823969
1787892181370687680,-0.124,,,,1787892181370687680,0.4071520566
1787892181378384277,-0.119,,,,1787892181378384277,0.4079217163
1787892181386080874,-0.119,,,,1787892181386080874,0.408691376
1787892181393777471,-0.117,,,,1787892181393777471,0.4094610357
1787892181401474068,-0.114,,,,1787892181401474068,0.4102306954
1787892181409170665,-0.114,,,,1787892181409170665,0.4110003551
1787892181416867262,-0.112,,,,1787892181416867262,0.4117700148
1787892181424563859,-0.11,,,,1787892181424563859,0.4125396745
1787892181432260456,-0.107,,,,1787892181432260456,0.4133093342
1787892181439957053,-0.107,,,,1787892181439957053,0.4140789939
1787892181447653650,-0.105,,,,1787892181447653650,0.4148486536
1787892181455350247,-0.102,,,,1787892181455350247,0.4156183133
1787892181463046844,-0.097,,,,1787892181463046844,0.416387973
1787892181470743441,-0.097,,,,1787892181470743441,0.4171576327
1787892181478440038,-0.1,,,,1787892181478440038,0.4179272924
1787892181486136635,-0.105,,,,1787892181486136635,0.4186969521
1787892181493833232,-0.105,,,,1787892181493833232,0.4194666118
1787892181501529829,-0.11,,,,1787892181501529829,0.4202362715
1787892181509226426,-0.11,,,,1787892181509226426,0.4210059312
1787892181516923023,-0.085,,,,1787892181516923023,0.4217755909
1787892181524619620,-0.053,,,,1787892181524619620,0.4225452506
1787892181532316217,-0.046,,,,1787892181532316217,0.4233149103
1787892181540012814,-0.056,,,,1787892181540012814,0.42408457
1787892181547709411,-0.07,,,,1787892181547709411,0.4248542297
1787892181555406008,-0.078,,,,1787892181555406008,0.4256238894
1787892181563102605,-0.085,,,,1787892181563102605,0.4263935491
1787892181570799202,-0.088,,,,1787892181570799202,0.4271632088
1787892181578495799,-0.088,,,,1787892181578495799,0.4279328685
1787892181586192396,-0.09,,,,1787892181586192396,0.4287025282
1787892181593888993,-0.119,,,,1787892181593888993,0.4294721879
1787892181601585590,-0.173,,,,1787892181601585590,0.4302418476
1787892181609282187,-0.134,,,,1787892181609282187,0.4310115073
1787892181616978784,0.149,,,,1787892181616978784,0.431781167
1787892181624675381,0.621,,,,1787892181624675381,0.4325508267
1787892181632371978,0.987,,,,1787892181632371978,0.4333204864
1787892181640068575,0.777,,,,1787892181640068575,0.4340901461
1787892181647765172,0.11,,,,1787892181647765172,0.4348598058
1787892181655461769,-0.193,,,,1787892181655461769,0.4356294655
1787892181663158366,-0.092,,,,1787892181663158366,0.4363991252
1787892181670854963,-0.139,,,,1787892181670854963,0.4371687849
1787892181678551560,-0.229,,,,1787892181678551560,0.4379384446
1787892181686248157,-0.18,,,,1787892181686248157,0.4387081043
1787892181693944754,-0.158,,,,1787892181693944754,0.439477764
1787892181701641351,-0.188,,,,1787892181701641351,0.4402474237
1787892181709337948,-0.166,,,,1787892181709337948,0.4410170834
1787892181717034545,-0.139,,,,1787892181717034545,0.4417867431
1787892181724731142,-0.141,,,,1787892181724731142,0.4425564028
1787892181732427739,-0.139,,,,1787892181732427739,0.4433260625
1787892181740124336,-0.127,,,,1787892181740124336,0.4440957222
1787892181747820933,-0.122,,,,1787892181747820933,0.4448653819
1787892181755517530,-0.11,,,,1787892181755517530,0.4456350416
1787892181763214127,-0.1,,,,1787892181763214127,0.4464047013
1787892181770910724,-0.097,,,,1787892181770910724,0.447174361
1787892181778607321,-0.088,,,,1787892181778607321,0.4479440207
1787892181786303918,-0.07,,,,1787892181786303918,0.4487136804
1787892181794000572,-0.058,,,,1787892181794000572,0.4494833458
1787892181801697309,-0.058,,,,1787892181801697309,0.4502530195
1787892181809394046,-0.053,,,,1787892181809394046,0.4510226932
1787892181817090783,-0.036,,,,1787892181817090783,0.4517923669
1787892181824787520,-0.024,,,,1787892181824787520,0.4525620406
1787892181832484257,-0.014,,,,1787892181832484257,0.4533317143
1787892181840180994,0.0,,,,1787892181840180994,0.454101388
1787892181847877731,0.002,,,,1787892181847877731,0.4548710617
1787892181855574468,0.002,,,,1787892181855574468,0.4556407354
1787892181863271205,-0.002,,,,1787892181863271205,0.4564104091
1787892181870967942,-0.019,,,,1787892181870967942,0.4571800828
1787892181878664679,-0.044,,,,1787892181878664679,0.4579497565
1787892181886361416,-0.078,,,,1787892181886361416,0.4587194302
1787892181894058153,-0.105,,,,1787892181894058153,0.4594891039
1787892181901754890,-0.124,,,,1787892181901754890,0.4602587776
1787892181909451627,-0.146,,,,1787892181909451627,0.4610284513
1787892181917148364,-0.166,,,,1787892181917148364,0.461798125
1787892181924845101,-0.18,,,,1787892181924845101,0.4625677987
1787892181932541838,-0.178,,,,1787892181932541838,0.4633374724
1787892181940238575,-0.168,,,,1787892181940238575,0.4641071461
1787892181947935312,-0.168,,,,1787892181947935312,0.4648768198
1787892181955632049,-0.166,,,,1787892181955632049,0.4656464935
1787892181963328786,-0.158,,,,1787892181963328786,0.4664161672
1787892181971025523,-0.151,,,,1787892181971025523,0.4671858409
1787892181978722260,-0.149,,,,1787892181978722260,0.4679555146
1787892181986418997,-0.149,,,,1787892181986418997,0.4687251883
1787892181994115734,-0.144,,,,1787892181994115734,0.469494862
1787892182001812471,-0.136,,,,1787892182001812471,0.4702645357
1787892182009509208,-0.136,,,,1787892182009509208,0.4710342094
1787892182017205945,-0.139,,,,1787892182017205945,0.4718038831
1787892182024902682,-0.136,,,,1787892182024902682,0.4725735568
1787892182032599419,-0.134,,,,1787892182032599419,0.4733432305
1787892182040296156,-0.132,,,,1787892182040296156,0.4741129042
1787892182047992893,-0.127,,,,1787892182047992893,0.4748825779
1787892182055689630,-0.124,,,,1787892182055689630,0.4756522516
1787892182063386367,-0.124,,,,1787892182063386367,0.4764219253
1787892182071083104,-0.124,,,,1787892182071083104,0.477191599
1787892182078779841,-0.122,,,,1787892182078779841,0.4779612727
1787892182086476578,-0.127,,,,1787892182086476578,0.4787309464
1787892182094173315,-0.127,,,,1787892182094173315,0.4795006201
1787892182101870052,-0.119,,,,1787892182101870052,0.4802702938
1787892182109566789,-0.114,,,,1787892182109566789,0.4810399675
1787892182117263526,-0.117,,,,1787892182117263526,0.4818096412
1787892182124960263,-0.117,,,,1787892182124960263,0.4825793149
1787892182132657000,-0.107,,,,1787892182132657000,0.4833489886
1787892182140353737,-0.097,,,,1787892182140353737,0.4841186623
1787892182148050474,-0.092,,,,1787892182148050474,0.484888336
1787892182155747211,-0.095,,,,1787892182155747211,0.4856580097
1787892182163443948,-0.097,,,,1787892182163443948,0.4864276834
1787892182171140685,-0.095,,,,1787892182171140685,0.4871973571
1787892182178837422,-0.09,,,,1787892182178837422,0.4879670308
1787892182186534159,-0.09,,,,1787892182186534159,0.4887367045
1787892182194230896,-0.088,,,,1787892182194230896,0.4895063782
1787892182201927633,-0.09,,,,1787892182201927633,0.4902760519
1787892182209624370,-0.09,,,,1787892182209624370,0.4910457256
1787892182217321107,-0.085,,,,1787892182217321107,0.4918153993
1787892182225017844,-0.09,,,,1787892182225017844,0.492585073
1787892182232714581,-0.092,,,,1787892182232714581,0.4933547467
1787892182240411318,-0.09,,,,1787892182240411318,0.4941244204
1787892182248108055,-0.095,,,,1787892182248108055,0.4948940941
1787892182255804792,-0.095,,,,1787892182255804792,0.4956637678
1787892182263501529,-0.083,,,,1787892182263501529,0.4964334415
1787892182271198266,-0.083,,,,1787892182271198266,0.4972031152
1787892182278895003,-0.088,,,,1787892182278895003,0.4979727889
1787892182286591740,-0.09,,,,1787892182286591740,0.4987424626
1787892182294288477,-0.092,,,,1787892182294288477,0.4995121363
1787892182301985214,-0.09,,,,1787892182301985214,0.50028181
1787892182309681951,-0.092,,,,1787892182309681951,0.5010514837
1787892182317378688,-0.1,,,,1787892182317378688,0.5018211574
1787892182325075425,-0.1,,,,1787892182325075425,0.5025908311
1787892182332772162,-0.092,,,,1787892182332772162,0.5033605048
1787892182340468899,-0.085,,,,1787892182340468899,0.5041301785
1787892182348165636,-0.066,,,,1787892182348165636,0.5048998522
1787892182355862384,-0.048,87.0,735.0,,1787892182355862384,0.505669527
1787892182363558842,-0.056,,669.0,,1787892182363558842,0.5064391728
1787892182371255300,-0.068,,,,1787892182371255300,0.5072088186
1787892182378951758,-0.075,,,,1787892182378951758,0.5079784644
1787892182386648216,-0.09,,,,1787892182386648216,0.5087481102
1787892182394344674,-0.09,,,,1787892182394344674,0.509517756
1787892182402041132,-0.083,,,,1787892182402041132,0.5102874018
1787892182409737590,-0.085,,,,1787892182409737590,0.5110570476
1787892182417434048,-0.097,,,,1787892182417434048,0.5118266934
1787892182425130506,-0.144,,,,1787892182425130506,0.5125963392
1787892182432826964,-0.171,,,,1787892182432826964,0.513365985
1787892182440523422,0.009,,,,1787892182440523422,0.5141356308
1787892182448219880,0.423,,,,1787892182448219880,0.5149052766
1787892182455916338,0.853,,,,1787892182455916338,0.5156749224
1787892182463612796,0.885,,,,1787892182463612796,0.5164445682
1787892182471309254,0.342,,,,1787892182471309254,0.517214214
1787892182479005712,-0.146,,,,1787892182479005712,0.5179838598
1787892182486702170,-0.144,,,,1787892182486702170,0.5187535056
1787892182494398628,-0.107,,,,1787892182494398628,0.5195231514
1787892182502095086,-0.21,,,,1787892182502095086,0.5202927972
1787892182509791544,-0.207,,,,1787892182509791544,0.521062443
1787892182517488002,-0.163,,,,1787892182517488002,0.5218320888
1787892182525184460,-0.178,,,,1787892182525184460,0.5226017346
1787892182532880918,-0.173,,,,1787892182532880918,0.5233713804
1787892182540577376,-0.146,,,,1787892182540577376,0.5241410262
1787892182548273834,-0.149,,,,1787892182548273834,0.524910672
1787892182555970292,-0.144,,,,1787892182555970292,0.5256803178
1787892182563666750,-0.129,,,,1787892182563666750,0.5264499636
1787892182571363208,-0.124,,,,1787892182571363208,0.5272196094
1787892182579059666,-0.117,,,,1787892182579059666,0.5279892552
1787892182586756124,-0.1,,,,1787892182586756124,0.528758901
1787892182594452582,-0.088,,,,1787892182594452582,0.5295285468
1787892182602149040,-0.08,,,,1787892182602149040,0.5302981926
1787892182609845498,-0.073,,,,1787892182609845498,0.5310678384
1787892182617541956,-0.061,,,,1787892182617541956,0.5318374842
1787892182625238414,-0.051,,,,1787892182625238414,0.53260713
1787892182632934872,-0.034,,,,1787892182632934872,0.5333767758
1787892182640631330,-0.017,,,,1787892182640631330,0.5341464216
1787892182648327788,-0.009,,,,1787892182648327788,0.5349160674
1787892182656024246,-0.004,,,,1787892182656024246,0.5356857132
1787892182663720704,0.002,,,,1787892182663720704,0.536455359
1787892182671417162,0.007,,,,1787892182671417162,0.5372250048
1787892182679113620,0.007,,,,1787892182679113620,0.5379946506
1787892182686810078,0.004,,,,1787892182686810078,0.5387642964
1787892182694506536,0.0,,,,1787892182694506536,0.5395339422
1787892182702202994,-0.012,,,,1787892182702202994,0.540303588
1787892182709899452,-0.036,,,,1787892182709899452,0.5410732338
1787892182717595910,-0.063,,,,1787892182717595910,0.5418428796
1787892182725292368,-0.09,,,,1787892182725292368,0.5426125254
1787892182732988826,-0.11,,,,1787892182732988826,0.5433821712
1787892182740685284,-0.129,,,,1787892182740685284,0.544151817
1787892182748381742,-0.151,,,,1787892182748381742,0.5449214628
1787892182756078200,-0.158,,,,1787892182756078200,0.5456911086
1787892182763774658,-0.158,,,,1787892182763774658,0.5464607544
1787892182771471116,-0.168,,,,1787892182771471116,0.5472304002
1787892182779167574,-0.166,,,,1787892182779167574,0.548000046
1787892182786864032,-0.158,,,,1787892182786864032,0.5487696918
1787892182794560490,-0.158,,,,1787892182794560490,0.5495393376
1787892182802256948,-0.161,,,,1787892182802256948,0.5503089834
1787892182809953406,-0.158,,,,1787892182809953406,0.5510786292
1787892182817649864,-0.151,,,,1787892182817649864,0.551848275
1787892182825346322,-0.151,,,,1787892182825346322,0.5526179208
1787892182833042780,-0.149,,,,1787892182833042780,0.5533875666
1787892182840739238,-0.144,,,,1787892182840739238,0.5541572124
1787892182848435696,-0.144,,,,1787892182848435696,0.5549268582
1787892182856132154,-0.141,,,,1787892182856132154,0.555696504
1787892182863828612,-0.141,,,,1787892182863828612,0.5564661498
1787892182871525070,-0.146,,,,1787892182871525070,0.5572357956
1787892182879221528,-0.144,,,,1787892182879221528,0.5580054414
1787892182886917986,-0.136,,,,1787892182886917986,0.5587750872
1787892182894614444,-0.141,,,,1787892182894614444,0.559544733
1787892182902310902,-0.149,,,,1787892182902310902,0.5603143788
1787892182910007360,-0.154,,,,1787892182910007360,0.5610840246
1787892182917703850,-0.149,,,,1787892182917703850,0.5618536736
1787892182925400656,-0.146,,,,1787892182925400656,0.5626233542
1787892182933097462,-0.144,,,,1787892182933097462,0.5633930348
1787892182940794268,-0.146,,,,1787892182940794268,0.5641627154
1787892182948491074,-0.149,,,,1787892182948491074,0.564932396
1787892182956187880,-0.141,,,,1787892182956187880,0.5657020766
1787892182963884686,-0.136,,,,1787892182963884686,0.5664717572
1787892182971581492,-0.132,,,,1787892182971581492,0.5672414378
1787892182979278298,-0.127,,,,1787892182979278298,0.5680111184
1787892182986975104,-0.134,,,,1787892182986975104,0.568780799
1787892182994671910,-0.139,,,,1787892182994671910,0.5695504796
1787892183002368716,-0.127,,,,1787892183002368716,0.5703201602
1787892183010065522,-0.122,,,,1787892183010065522,0.5710898408
1787892183017762328,-0.127,,,,1787892183017762328,0.5718595214
1787892183025459134,-0.127,,,,1787892183025459134,0.572629202
1787892183033155940,-0.122,,,,1787892183033155940,0.5733988826
1787892183040852746,-0.122,,,,1787892183040852746,0.5741685632
1787892183048549552,-0.127,,,,1787892183048549552,0.5749382438
1787892183056246358,-0.124,,,,1787892183056246358,0.5757079244
1787892183063943164,-0.117,,,,1787892183063943164,0.576477605
1787892183071639970,-0.117,,,,1787892183071639970,0.5772472856
1787892183079336776,-0.122,,,,1787892183079336776,0.5780169662
1787892183087033582,-0.124,,,,1787892183087033582,0.5787866468
1787892183094730388,-0.119,,,,1787892183094730388,0.5795563274
1787892183102427194,-0.117,,,,1787892183102427194,0.580326008
1787892183110124000,-0.117,,,,1787892183110124000,0.5810956886
1787892183117820806,-0.114,,,,1787892183117820806,0.5818653692
1787892183125517612,-0.114,,,,1787892183125517612,0.5826350498
1787892183133214418,-0.122,,,,1787892183133214418,0.5834047304
1787892183140911224,-0.124,,,,1787892183140911224,0.584174411
1787892183148608030,-0.112,,,,1787892183148608030,0.5849440916
1787892183156304836,-0.11,,,,1787892183156304836,0.5857137722
1787892183164001642,-0.122,,,,1787892183164001642,0.5864834528
1787892183171698448,-0.124,,,,1787892183171698448,0.5872531334
1787892183179395254,-0.112,,,,1787892183179395254,0.588022814
1787892183187092060,-0.097,,,,1787892183187092060,0.5887924946
1787892183194788866,-0.08,,,,1787892183194788866,0.5895621752
1787892183202485672,-0.07,,,,1787892183202485672,0.5903318558
1787892183210182478,-0.083,,,,1787892183210182478,0.5911015364
1787892183217879284,-0.102,,,,1787892183217879284,0.591871217
1787892183225576090,-0.112,,,,1787892183225576090,0.5926408976
1787892183233272896,-0.107,,,,1787892183233272896,0.5934105782
1787892183240969702,-0.1,,,,1787892183240969702,0.5941802588
1787892183248666508,-0.1,,,,1787892183248666508,0.5949499394
1787892183256363314,-0.105,,,,1787892183256363314,0.59571962
1787892183264060120,-0.146,,,,1787892183264060120,0.5964893006
1787892183271756926,-0.205,,,,1787892183271756926,0.5972589812
1787892183279453732,-0.122,,,,1787892183279453732,0.5980286618
1787892183287150538,0.205,,,,1787892183287150538,0.5987983424
1787892183294847344,0.652,,,,1787892183294847344,0.599568023
1787892183302544150,0.887,,,,1787892183302544150,0.6003377036
1787892183310240956,0.542,,,,1787892183310240956,0.6011073842
1787892183317937762,-0.053,,,,1787892183317937762,0.6018770648
1787892183325634568,-0.21,,,,1787892183325634568,0.6026467454
1787892183333331374,-0.11,,,,1787892183333331374,0.603416426
1787892183341028180,-0.166,,,,1787892183341028180,0.6041861066
1787892183348724986,-0.217,,,,1787892183348724986,0.6049557872
1787892183356421792,-0.176,,,,1787892183356421792,0.6057254678
1787892183364118598,-0.161,,,,1787892183364118598,0.6064951484
1787892183371815404,-0.173,,,,1787892183371815404,0.607264829
1787892183379512210,-0.158,,,,1787892183379512210,0.6080345096
1787892183387209016,-0.154,,,,1787892183387209016,0.6088041902
1787892183394905822,-0.149,,,,1787892183394905822,0.6095738708
1787892183402602628,-0.129,,,,1787892183402602628,0.6103435514
1787892183410299434,-0.119,,,,1787892183410299434,0.611113232
1787892183417996240,-0.122,,,,1787892183417996240,0.6118829126
1787892183425693046,-0.114,,,,1787892183425693046,0.6126525932
1787892183433389852,-0.1,,,,1787892183433389852,0.6134222738
1787892183441086658,-0.095,,,,1787892183441086658,0.6141919544
1787892183448783464,-0.09,,,,1787892183448783464,0.614961635
1787892183456480270,-0.07,,,,1787892183456480270,0.6157313156
1787892183464177076,-0.056,,,,1787892183464177076,0.6165009962
1787892183471873882,-0.048,,,,1787892183471873882,0.6172706768
1787892183479570746,-0.041,87.0,689.0,,1787892183479570746,0.6180403632
1787892183487267274,-0.039,,,,1787892183487267274,0.618810016
1787892183494963802,-0.031,,,,1787892183494963802,0.6195796688
1787892183502660330,-0.019,,,,1787892183502660330,0.6203493216
1787892183510356858,-0.019,,,,1787892183510356858,0.6211189744
1787892183518053386,-0.022,,,,1787892183518053386,0.6218886272
1787892183525749914,-0.024,,,,1787892183525749914,0.62265828
1787892183533446442,-0.026,,,,1787892183533446442,0.6234279328
1787892183541142970,-0.036,,,,1787892183541142970,0.6241975856
1787892183548839498,-0.058,,,,1787892183548839498,0.6249672384
1787892183556536026,-0.08,,,,1787892183556536026,0.6257368912
1787892183564232554,-0.1,,,,1787892183564232554,0.626506544
1787892183571929082,-0.124,,,,1787892183571929082,0.6272761968
1787892183579625610,-0.146,,,,1787892183579625610,0.6280458496
1787892183587322138,-0.166,,,,1787892183587322138,0.6288155024
1787892183595018666,-0.185,,,,1787892183595018666,0.6295851552
1787892183602715194,-0.198,,,,1787892183602715194,0.630354808
1787892183610411722,-0.193,,,,1787892183610411722,0.6311244608
1787892183618108250,-0.185,,,,1787892183618108250,0.6318941136
1787892183625804778,-0.193,,,,1787892183625804778,0.6326637664
1787892183633501306,-0.195,,,,1787892183633501306,0.6334334192
1787892183641197834,-0.185,,,,1787892183641197834,0.634203072
1787892183648894362,-0.173,,,,1787892183648894362,0.6349727248
1787892183656590890,-0.158,,,,1787892183656590890,0.6357423776
1787892183664287418,-0.154,,,,1787892183664287418,0.6365120304
1787892183671983946,-0.149,,,,1787892183671983946,0.6372816832
1787892183679680474,-0.144,,,,1787892183679680474,0.638051336
1787892183687377002,-0.144,,,,1787892183687377002,0.6388209888
1787892183695073530,-0.141,,,,1787892183695073530,0.6395906416
1787892183702770058,-0.139,,,,1787892183702770058,0.6403602944
1787892183710466586,-0.146,,,,1787892183710466586,0.6411299472
1787892183718163114,-0.154,,,,1787892183718163114,0.6418996
1787892183725859642,-0.154,,,,1787892183725859642,0.6426692528
1787892183733556170,-0.151,,,,1787892183733556170,0.6434389056
1787892183741252698,-0.146,,,,1787892183741252698,0.6442085584
1787892183748949226,-0.146,,,,1787892183748949226,0.6449782112
1787892183756645754,-0.146,,,,1787892183756645754,0.645747864
1787892183764342282,-0.141,,,,1787892183764342282,0.6465175168
1787892183772038810,-0.139,,,,1787892183772038810,0.6472871696
1787892183779735338,-0.146,,,,1787892183779735338,0.6480568224
1787892183787431866,-0.151,,,,1787892183787431866,0.6488264752
1787892183795128394,-0.136,,,,1787892183795128394,0.649596128
1787892183802824922,-0.127,,,,1787892183802824922,0.6503657808
1787892183810521450,-0.134,,,,1787892183810521450,0.6511354336
1787892183818217978,-0.134,,,,1787892183818217978,0.6519050864
1787892183825914506,-0.129,,,,1787892183825914506,0.6526747392
1787892183833611034,-0.129,,,,1787892183833611034,0.653444392
1787892183841307562,-0.127,,,,1787892183841307562,0.6542140448
1787892183849004090,-0.124,,,,1787892183849004090,0.6549836976
1787892183856700618,-0.122,,,,1787892183856700618,0.6557533504
1787892183864397146,-0.124,,,,1787892183864397146,0.6565230032
1787892183872093674,-0.122,,,,1787892183872093674,0.657292656
1787892183879790202,-0.114,,,,1787892183879790202,0.6580623088
1787892183887486730,-0.112,,,,1787892183887486730,0.6588319616
1787892183895183258,-0.112,,,,1787892183895183258,0.6596016144
1787892183902879786,-0.112,,,,1787892183902879786,0.6603712672
1787892183910576314,-0.117,,,,1787892183910576314,0.66114092
1787892183918272842,-0.124,,,,1787892183918272842,0.6619105728
1787892183925969370,-0.129,,,,1787892183925969370,0.6626802256
1787892183933665898,-0.122,,,,1787892183933665898,0.6634498784
1787892183941362426,-0.11,,,,1787892183941362426,0.6642195312
1787892183949058954,-0.092,,,,1787892183949058954,0.664989184
1787892183956755482,-0.073,,,,1787892183956755482,0.6657588368
1787892183964452010,-0.073,,,,1787892183964452010,0.6665284896
1787892183972148538,-0.085,,,,1787892183972148538,0.6672981424
1787892183979845066,-0.092,,,,1787892183979845066,0.6680677952
1787892183987541594,-0.102,,,,1787892183987541594,0.668837448
1787892183995238122,-0.105,,,,1787892183995238122,0.6696071008
1787892184002934650,-0.102,,,,1787892184002934650,0.6703767536
1787892184010631178,-0.105,,,,1787892184010631178,0.6711464064
1787892184018327706,-0.114,,,,1787892184018327706,0.6719160592
1787892184026024234,-0.161,,,,1787892184026024234,0.672685712
1787892184033720762,-0.2,,,,1787892184033720762,0.6734553648
1787892184041417300,-0.041,,,,1787892184041417300,0.6742250186
1787892184049113758,0.376,,,,1787892184049113758,0.6749946644
1787892184056810216,0.8210000000000001,,,,1787892184056810216,0.6757643102
1787892184064506674,0.87,,,,1787892184064506674,0.676533956
1787892184072203132,0.325,,,,1787892184072203132,0.6773036018
1787892184079899590,-0.178,,,,1787892184079899590,0.6780732476
1787892184087596048,-0.161,,,,1787892184087596048,0.6788428934
1787892184095292506,-0.09,,,,1787892184095292506,0.6796125392
1787892184102988964,-0.176,,,,1787892184102988964,0.680382185
1787892184110685422,-0.178,,,,1787892184110685422,0.6811518308
1787892184118381880,-0.141,,,,1787892184118381880,0.6819214766
1787892184126078338,-0.158,,,,1787892184126078338,0.6826911224
1787892184133774796,-0.158,,,,1787892184133774796,0.6834607682
1787892184141471254,-0.136,,,,1787892184141471254,0.684230414
1787892184149167712,-0.127,,,,1787892184149167712,0.6850000598
1787892184156864170,-0.114,,,,1787892184156864170,0.6857697056
1787892184164560628,-0.105,,,,1787892184164560628,0.6865393514
1787892184172257086,-0.102,,,,1787892184172257086,0.6873089972
1787892184179953544,-0.097,,,,1787892184179953544,0.688078643
1787892184187650002,-0.09,,,,1787892184187650002,0.6888482888
1787892184195346460,-0.078,,,,1787892184195346460,0.6896179346
1787892184203042918,-0.063,,,,1787892184203042918,0.6903875804
1787892184210739376,-0.056,,,,1787892184210739376,0.6911572262
1787892184218435834,-0.048,,,,1787892184218435834,0.691926872
1787892184226132292,-0.046,,,,1787892184226132292,0.6926965178
1787892184233828750,-0.041,,,,1787892184233828750,0.6934661636
1787892184241525208,-0.026,,,,1787892184241525208,0.6942358094
1787892184249221666,-0.004,,,,1787892184249221666,0.6950054552
1787892184256918124,0.002,,,,1787892184256918124,0.695775101
1787892184264614582,-0.002,,,,1787892184264614582,0.6965447468
1787892184272311040,0.0,,,,1787892184272311040,0.6973143926
1787892184280007498,0.007,,,,1787892184280007498,0.6980840384
1787892184287703956,0.0,,,,1787892184287703956,0.6988536842
1787892184295400414,-0.014,,,,1787892184295400414,0.69962333
1787892184303096872,-0.034,,,,1787892184303096872,0.7003929758
1787892184310793330,-0.061,,,,1787892184310793330,0.7011626216
1787892184318489788,-0.09,,,,1787892184318489788,0.7019322674
1787892184326186246,-0.127,,,,1787892184326186246,0.7027019132
1787892184333882704,-0.154,,,,1787892184333882704,0.703471559
1787892184341579162,-0.166,,,,1787892184341579162,0.7042412048
1787892184349275620,-0.18,,,,1787892184349275620,0.7050108506
1787892184356972078,-0.195,,,,1787892184356972078,0.7057804964
1787892184364668536,-0.202,,,,1787892184364668536,0.7065501422
1787892184372364994,-0.2,,,,1787892184372364994,0.707319788
1787892184380061452,-0.19,,,,1787892184380061452,0.7080894338
1787892184387757910,-0.183,,,,1787892184387757910,0.7088590796
1787892184395454368,-0.178,,,,1787892184395454368,0.7096287254
1787892184403150826,-0.178,,,,1787892184403150826,0.7103983712
1787892184410847284,-0.173,,,,1787892184410847284,0.711168017
1787892184418543742,-0.168,,,,1787892184418543742,0.7119376628
1787892184426240200,-0.168,,,,1787892184426240200,0.7127073086
1787892184433936658,-0.166,,,,1787892184433936658,0.7134769544
1787892184441633116,-0.156,,,,1787892184441633116,0.7142466002
1787892184449329574,-0.151,,,,1787892184449329574,0.715016246
1787892184457026032,-0.151,,,,1787892184457026032,0.7157858918
1787892184464722490,-0.156,,,,1787892184464722490,0.7165555376
1787892184472418948,-0.151,,,,1787892184472418948,0.7173251834
1787892184480115406,-0.149,,,,1787892184480115406,0.7180948292
1787892184487811864,-0.151,,,,1787892184487811864,0.718864475
1787892184495508322,-0.154,,,,1787892184495508322,0.7196341208
1787892184503204780,-0.154,,,,1787892184503204780,0.7204037666
1787892184510901238,-0.154,,,,1787892184510901238,0.7211734124
1787892184518597696,-0.151,,,,1787892184518597696,0.7219430582
1787892184526294154,-0.149,,,,1787892184526294154,0.722712704
1787892184533990612,-0.149,,,,1787892184533990612,0.7234823498
1787892184541687070,-0.149,,,,1787892184541687070,0.7242519956
1787892184549383528,-0.151,,,,1787892184549383528,0.7250216414
1787892184557079986,-0.151,,,,1787892184557079986,0.7257912872
1787892184564776444,-0.146,,,,1787892184564776444,0.726560933
1787892184572472902,-0.136,,,,1787892184572472902,0.7273305788
1787892184580169360,-0.132,,,,1787892184580169360,0.7281002246
1787892184587865818,-0.129,,,,1787892184587865818,0.7288698704
1787892184595562276,-0.127,,,,1787892184595562276,0.7296395162
1787892184603258768,-0.127,87.0,826.0,,1787892184603258768,0.7304091654
1787892184610955226,-0.127,,,,1787892184610955226,0.7311788112
1787892184618651684,-0.124,,,,1787892184618651684,0.731948457
1787892184626348142,-0.127,,,,1787892184626348142,0.7327181028
1787892184634044600,-0.122,,,,1787892184634044600,0.7334877486
1787892184641741058,-0.114,,,,1787892184641741058,0.7342573944
1787892184649437516,-0.112,,,,1787892184649437516,0.7350270402
1787892184657133974,-0.11,,,,1787892184657133974,0.735796686
1787892184664830432,-0.107,,,,1787892184664830432,0.7365663318
1787892184672526890,-0.102,,,,1787892184672526890,0.7373359776
1787892184680223348,-0.102,,,,1787892184680223348,0.7381056234
1787892184687919806,-0.112,,,,1787892184687919806,0.7388752692
1787892184695616264,-0.114,,,,1787892184695616264,0.739644915
1787892184703312722,-0.105,,,,1787892184703312722,0.7404145608
1787892184711009180,-0.085,,,,1787892184711009180,0.7411842066
1787892184718705638,-0.066,,,,1787892184718705638,0.7419538524
1787892184726402096,-0.053,,,,1787892184726402096,0.7427234982
1787892184734098554,-0.053,,,,1787892184734098554,0.743493144
1787892184741795012,-0.066,,,,1787892184741795012,0.7442627898
1787892184749491470,-0.083,,,,1787892184749491470,0.7450324356
1787892184757187928,-0.083,,,,1787892184757187928,0.7458020814
1787892184764884386,-0.08,,,,1787892184764884386,0.7465717272
1787892184772580844,-0.08,,,,1787892184772580844,0.747341373
1787892184780277302,-0.085,,,,1787892184780277302,0.7481110188
1787892184787973760,-0.119,,,,1787892184787973760,0.7488806646
1787892184795670218,-0.176,,,,1787892184795670218,0.7496503104
1787892184803366676,-0.102,,,,1787892184803366676,0.7504199562
1787892184811063134,0.227,,,,1787892184811063134,0.751189602
1787892184818759592,0.6990000000000001,,,,1787892184818759592,0.7519592478
1787892184826456050,0.97,,,,1787892184826456050,0.7527288936
1787892184834152508,0.645,,,,1787892184834152508,0.7534985394
1787892184841848966,0.017,,,,1787892184841848966,0.7542681852
1787892184849545424,-0.178,,,,1787892184849545424,0.755037831
1787892184857241882,-0.09,,,,1787892184857241882,0.7558074768
1787892184864938340,-0.161,,,,1787892184864938340,0.7565771226
1787892184872634798,-0.212,,,,1787892184872634798,0.7573467684
1787892184880331256,-0.158,,,,1787892184880331256,0.7581164142
1787892184888027714,-0.161,,,,1787892184888027714,0.75888606
1787892184895724172,-0.183,,,,1787892184895724172,0.7596557058
1787892184903420630,-0.158,,,,1787892184903420630,0.7604253516
1787892184911117088,-0.141,,,,1787892184911117088,0.7611949974
1787892184918813546,-0.141,,,,1787892184918813546,0.7619646432
1787892184926510004,-0.132,,,,1787892184926510004,0.762734289
1787892184934206462,-0.122,,,,1787892184934206462,0.7635039348
1787892184941902920,-0.119,,,,1787892184941902920,0.7642735806
1787892184949599378,-0.112,,,,1787892184949599378,0.7650432264
1787892184957295836,-0.097,,,,1787892184957295836,0.7658128722
1787892184964992294,-0.088,,,,1787892184964992294,0.766582518
1787892184972688752,-0.085,,,,1787892184972688752,0.7673521638
1787892184980385210,-0.075,,,,1787892184980385210,0.7681218096
1787892184988081668,-0.068,,,,1787892184988081668,0.7688914554
1787892184995778126,-0.056,,,,1787892184995778126,0.7696611012
1787892185003474584,-0.046,,,,1787892185003474584,0.770430747
1787892185011171042,-0.034,,,,1787892185011171042,0.7712003928
1787892185018867500,-0.024,,,,1787892185018867500,0.7719700386
1787892185026563958,-0.024,,,,1787892185026563958,0.7727396844
1787892185034260416,-0.022,,,,1787892185034260416,0.7735093302
1787892185041956874,-0.014,,,,1787892185041956874,0.774278976
1787892185049653332,-0.012,,,,1787892185049653332,0.7750486218
1787892185057349790,-0.014,,,,1787892185057349790,0.7758182676
1787892185065046248,-0.029,,,,1787892185065046248,0.7765879134
1787892185072742706,-0.051,,,,1787892185072742706,0.7773575592
1787892185080439164,-0.08,,,,1787892185080439164,0.778127205
1787892185088135622,-0.112,,,,1787892185088135622,0.7788968508
1787892185095832080,-0.134,,,,1787892185095832080,0.7796664966
1787892185103528538,-0.156,,,,1787892185103528538,0.7804361424
1787892185111224996,-0.178,,,,1787892185111224996,0.7812057882
1787892185118921454,-0.185,,,,1787892185118921454,0.781975434
1787892185126617912,-0.185,,,,1787892185126617912,0.7827450798
1787892185134314370,-0.193,,,,1787892185134314370,0.7835147256
1787892185142010828,-0.193,,,,1787892185142010828,0.7842843714
1787892185149707286,-0.188,,,,1787892185149707286,0.7850540172
1787892185157403744,-0.176,,,,1787892185157403744,0.785823663
1787892185165100234,-0.163,,,,1787892185165100234,0.786593312
1787892185172796901,-0.161,,,,1787892185172796901,0.7873629787
1787892185180493568,-0.166,,,,1787892185180493568,0.7881326454
1787892185188190235,-0.166,,,,1787892185188190235,0.7889023121
1787892185195886902,-0.158,,,,1787892185195886902,0.7896719788
1787892185203583569,-0.156,,,,1787892185203583569,0.7904416455
1787892185211280236,-0.158,,,,1787892185211280236,0.7912113122
1787892185218976903,-0.156,,,,1787892185218976903,0.7919809789
1787892185226673570,-0.151,,,,1787892185226673570,0.7927506456
1787892185234370237,-0.151,,,,1787892185234370237,0.7935203123
1787892185242066904,-0.156,,,,1787892185242066904,0.794289979
1787892185249763571,-0.158,,,,1787892185249763571,0.7950596457
1787892185257460238,-0.151,,,,1787892185257460238,0.7958293124
1787892185265156905,-0.144,,,,1787892185265156905,0.7965989791
1787892185272853572,-0.144,,,,1787892185272853572,0.7973686458
1787892185280550239,-0.146,,,,1787892185280550239,0.7981383125
1787892185288246906,-0.146,,,,1787892185288246906,0.7989079792
1787892185295943573,-0.139,,,,1787892185295943573,0.7996776459
1787892185303640240,-0.141,,,,1787892185303640240,0.8004473126
1787892185311336907,-0.139,,,,1787892185311336907,0.8012169793
1787892185319033574,-0.132,,,,1787892185319033574,0.801986646
1787892185326730241,-0.129,,,,1787892185326730241,0.8027563127
1787892185334426908,-0.127,,,,1787892185334426908,0.8035259794
1787892185342123575,-0.124,,,,1787892185342123575,0.8042956461
1787892185349820242,-0.119,,,,1787892185349820242,0.8050653128
1787892185357516909,-0.117,,,,1787892185357516909,0.8058349795
1787892185365213576,-0.117,,,,1787892185365213576,0.8066046462
1787892185372910243,-0.119,,,,1787892185372910243,0.8073743129
1787892185380606910,-0.117,,,,1787892185380606910,0.8081439796
1787892185388303577,-0.112,,,,1787892185388303577,0.8089136463
1787892185396000244,-0.11,,,,1787892185396000244,0.809683313
1787892185403696911,-0.107,,,,1787892185403696911,0.8104529797
1787892185411393578,-0.102,,,,1787892185411393578,0.8112226464
1787892185419090245,-0.105,,,,1787892185419090245,0.8119923131
1787892185426786912,-0.107,,,,1787892185426786912,0.8127619798
1787892185434483579,-0.1,,,,1787892185434483579,0.8135316465
1787892185442180246,-0.095,,,,1787892185442180246,0.8143013132
1787892185449876913,-0.095,,,,1787892185449876913,0.8150709799
1787892185457573580,-0.097,,,,1787892185457573580,0.8158406466
1787892185465270247,-0.1,,,,1787892185465270247,0.8166103133
1787892185472966914,-0.1,,,,1787892185472966914,0.81737998
1787892185480663581,-0.097,,,,1787892185480663581,0.8181496467
1787892185488360248,-0.102,,,,1787892185488360248,0.8189193134
1787892185496056915,-0.107,,,,1787892185496056915,0.8196889801
1787892185503753582,-0.102,,,,1787892185503753582,0.8204586468
1787892185511450249,-0.097,,,,1787892185511450249,0.8212283135
1787892185519146916,-0.083,,,,1787892185519146916,0.8219979802
1787892185526843583,-0.063,,,,1787892185526843583,0.8227676469
1787892185534540250,-0.056,,,,1787892185534540250,0.8235373136
1787892185542236917,-0.063,,,,1787892185542236917,0.8243069803
1787892185549933584,-0.078,,,,1787892185549933584,0.825076647
1787892185557630251,-0.088,,,,1787892185557630251,0.8258463137
1787892185565326918,-0.092,,,,1787892185565326918,0.8266159804
1787892185573023585,-0.092,,,,1787892185573023585,0.8273856471
1787892185580720252,-0.088,,,,1787892185580720252,0.8281553138
1787892185588416919,-0.092,,,,1787892185588416919,0.8289249805
1787892185596113586,-0.129,,,,1787892185596113586,0.8296946472
1787892185603810253,-0.185,,,,1787892185603810253,0.8304643139
1787892185611506920,-0.112,,,,1787892185611506920,0.8312339806
1787892185619203587,0.2,,,,1787892185619203587,0.8320036473
1787892185626900254,0.638,,,,1787892185626900254,0.832773314
1787892185634596921,0.902,,,,1787892185634596921,0.8335429807
1787892185642293588,0.604,,,,1787892185642293588,0.8343126474
1787892185649990255,0.002,,,,1787892185649990255,0.8350823141
1787892185657686922,-0.185,,,,1787892185657686922,0.8358519808
1787892185665383589,-0.102,,,,1787892185665383589,0.8366216475
1787892185673080256,-0.168,,,,1787892185673080256,0.8373913142
1787892185680776923,-0.222,,,,1787892185680776923,0.8381609809
1787892185688473590,-0.173,,,,1787892185688473590,0.8389306476
1787892185696170257,-0.171,,,,1787892185696170257,0.8397003143
1787892185703866924,-0.19,,,,1787892185703866924,0.840469981
1787892185711563591,-0.168,,,,1787892185711563591,0.8412396477
1787892185719260258,-0.151,,,,1787892185719260258,0.8420093144
1787892185726956958,-0.154,86.0,842.0,,1787892185726956958,0.8427789844
1787892185734653625,-0.139,,,,1787892185734653625,0.8435486511
1787892185742350292,-0.129,,,,1787892185742350292,0.8443183178
1787892185750046959,-0.124,,,,1787892185750046959,0.8450879845
1787892185757743626,-0.112,,,,1787892185757743626,0.8458576512
1787892185765440293,-0.107,,,,1787892185765440293,0.8466273179
1787892185773136960,-0.105,,,,1787892185773136960,0.8473969846
1787892185780833627,-0.092,,,,1787892185780833627,0.8481666513
1787892185788530294,-0.083,,,,1787892185788530294,0.848936318
1787892185796226961,-0.07,,,,1787892185796226961,0.8497059847
1787892185803923628,-0.051,,,,1787892185803923628,0.8504756514
1787892185811620295,-0.044,,,,1787892185811620295,0.8512453181
1787892185819316962,-0.039,,,,1787892185819316962,0.8520149848
1787892185827013629,-0.031,,,,1787892185827013629,0.8527846515
1787892185834710296,-0.022,,,,1787892185834710296,0.8535543182
1787892185842406963,-0.017,,,,1787892185842406963,0.8543239849
1787892185850103630,-0.019,,,,1787892185850103630,0.8550936516
1787892185857800297,-0.022,,,,1787892185857800297,0.8558633183
1787892185865496964,-0.019,,,,1787892185865496964,0.856632985
1787892185873193631,-0.029,,,,1787892185873193631,0.8574026517
1787892185880890298,-0.056,,,,1787892185880890298,0.8581723184
1787892185888586965,-0.085,,,,1787892185888586965,0.8589419851
1787892185896283632,-0.11,,,,1787892185896283632,0.8597116518
1787892185903980299,-0.136,,,,1787892185903980299,0.8604813185
1787892185911676966,-0.161,,,,1787892185911676966,0.8612509852
1787892185919373633,-0.183,,,,1787892185919373633,0.8620206519
1787892185927070300,-0.195,,,,1787892185927070300,0.8627903186
1787892185934766967,-0.2,,,,1787892185934766967,0.8635599853
1787892185942463634,-0.2,,,,1787892185942463634,0.864329652
1787892185950160301,-0.198,,,,1787892185950160301,0.8650993187
1787892185957856968,-0.195,,,,1787892185957856968,0.8658689854
1787892185965553635,-0.193,,,,1787892185965553635,0.8666386521
1787892185973250302,-0.183,,,,1787892185973250302,0.8674083188
1787892185980946969,-0.183,,,,1787892185980946969,0.8681779855
1787892185988643636,-0.193,,,,1787892185988643636,0.8689476522
1787892185996340303,-0.185,,,,1787892185996340303,0.8697173189
1787892186004036970,-0.176,,,,1787892186004036970,0.8704869856
1787892186011733637,-0.173,,,,1787892186011733637,0.8712566523
1787892186019430304,-0.171,,,,1787892186019430304,0.872026319
1787892186027126971,-0.173,,,,1787892186027126971,0.8727959857
1787892186034823638,-0.178,,,,1787892186034823638,0.8735656524
1787892186042520305,-0.171,,,,1787892186042520305,0.8743353191
1787892186050216972,-0.163,,,,1787892186050216972,0.8751049858
1787892186057913639,-0.163,,,,1787892186057913639,0.8758746525
1787892186065610306,-0.163,,,,1787892186065610306,0.8766443192
1787892186073306973,-0.161,,,,1787892186073306973,0.8774139859
1787892186081003640,-0.163,,,,1787892186081003640,0.8781836526
1787892186088700307,-0.163,,,,1787892186088700307,0.8789533193
1787892186096396974,-0.158,,,,1787892186096396974,0.879722986
1787892186104093641,-0.158,,,,1787892186104093641,0.8804926527
1787892186111790308,-0.158,,,,1787892186111790308,0.8812623194
1787892186119486975,-0.156,,,,1787892186119486975,0.8820319861
1787892186127183642,-0.156,,,,1787892186127183642,0.8828016528
1787892186134880309,-0.154,,,,1787892186134880309,0.8835713195
1787892186142576976,-0.146,,,,1787892186142576976,0.8843409862
1787892186150273643,-0.144,,,,1787892186150273643,0.8851106529
1787892186157970310,-0.136,,,,1787892186157970310,0.8858803196
1787892186165666977,-0.132,,,,1787892186165666977,0.8866499863
1787892186173363644,-0.127,,,,1787892186173363644,0.887419653
1787892186181060311,-0.124,,,,1787892186181060311,0.8881893197
1787892186188756978,-0.122,,,,1787892186188756978,0.8889589864
1787892186196453645,-0.117,,,,1787892186196453645,0.8897286531
1787892186204150312,-0.117,,,,1787892186204150312,0.8904983198
1787892186211846979,-0.117,,,,1787892186211846979,0.8912679865
1787892186219543646,-0.112,,,,1787892186219543646,0.8920376532
1787892186227240313,-0.117,,,,1787892186227240313,0.8928073199
1787892186234936980,-0.117,,,,1787892186234936980,0.8935769866
1787892186242633647,-0.107,,,,1787892186242633647,0.8943466533
1787892186250330314,-0.11,,,,1787892186250330314,0.89511632
1787892186258026981,-0.112,,,,1787892186258026981,0.8958859867
1787892186265723648,-0.105,,,,1787892186265723648,0.8966556534
1787892186273420315,-0.105,,,,1787892186273420315,0.8974253201
1787892186281116982,-0.105,,,,1787892186281116982,0.8981949868
1787892186288813684,-0.105,83.0,759.0,,1787892186288813684,0.898964657
1787892186296510142,-0.102,,766.0,,1787892186296510142,0.8997343028
1787892186304206600,-0.088,,,,1787892186304206600,0.9005039486
1787892186311903058,-0.063,,,,1787892186311903058,0.9012735944
1787892186319599516,-0.053,,,,1787892186319599516,0.9020432402
1787892186327295974,-0.068,,,,1787892186327295974,0.902812886
1787892186334992432,-0.078,,,,1787892186334992432,0.9035825318
1787892186342688890,-0.085,,,,1787892186342688890,0.9043521776
1787892186350385348,-0.09,,,,1787892186350385348,0.9051218234
1787892186358081806,-0.088,,,,1787892186358081806,0.9058914692
1787892186365778264,-0.085,,,,1787892186365778264,0.906661115
1787892186373474722,-0.095,,,,1787892186373474722,0.9074307608
1787892186381171180,-0.129,,,,1787892186381171180,0.9082004066
1787892186388867638,-0.183,,,,1787892186388867638,0.9089700524
1787892186396564096,-0.119,,,,1787892186396564096,0.9097396982
1787892186404260554,0.176,,,,1787892186404260554,0.910509344
1787892186411957012,0.604,,,,1787892186411957012,0.9112789898
1787892186419653470,0.86,,,,1787892186419653470,0.9120486356
1787892186427349928,0.5670000000000001,,,,1787892186427349928,0.9128182814
1787892186435046386,-0.019,,,,1787892186435046386,0.9135879272
1787892186442742844,-0.205,,,,1787892186442742844,0.914357573
1787892186450439302,-0.107,,,,1787892186450439302,0.9151272188
1787892186458135760,-0.151,,,,1787892186458135760,0.9158968646
1787892186465832218,-0.212,,,,1787892186465832218,0.9166665104
1787892186473528676,-0.173,,,,1787892186473528676,0.9174361562
1787892186481225134,-0.161,,,,1787892186481225134,0.918205802
1787892186488921592,-0.178,,,,1787892186488921592,0.9189754478
1787892186496618050,-0.158,,,,1787892186496618050,0.9197450936
1787892186504314508,-0.146,,,,1787892186504314508,0.9205147394
1787892186512010966,-0.149,,,,1787892186512010966,0.9212843852
1787892186519707424,-0.136,,,,1787892186519707424,0.922054031
1787892186527403882,-0.127,,,,1787892186527403882,0.9228236768
1787892186535100340,-0.119,,,,1787892186535100340,0.9235933226
1787892186542796798,-0.105,,,,1787892186542796798,0.9243629684
1787892186550493256,-0.102,,,,1787892186550493256,0.9251326142
1787892186558189714,-0.095,,,,1787892186558189714,0.92590226
1787892186565886172,-0.08,,,,1787892186565886172,0.9266719058
1787892186573582630,-0.066,,,,1787892186573582630,0.9274415516
1787892186581279088,-0.061,,,,1787892186581279088,0.9282111974
1787892186588975546,-0.056,,,,1787892186588975546,0.9289808432
1787892186596672004,-0.036,,,,1787892186596672004,0.929750489
1787892186604368462,-0.022,,,,1787892186604368462,0.9305201348
1787892186612064920,-0.019,,,,1787892186612064920,0.9312897806
1787892186619761378,-0.019,,,,1787892186619761378,0.9320594264
1787892186627457836,-0.014,,,,1787892186627457836,0.9328290722
1787892186635154294,-0.002,,,,1787892186635154294,0.933598718
1787892186642850752,-0.007,,,,1787892186642850752,0.9343683638
1787892186650547210,-0.019,,,,1787892186650547210,0.9351380096
1787892186658243668,-0.022,,,,1787892186658243668,0.9359076554
1787892186665940126,-0.041,,,,1787892186665940126,0.9366773012
1787892186673636584,-0.08,,,,1787892186673636584,0.937446947
1787892186681333042,-0.112,,,,1787892186681333042,0.9382165928
1787892186689029500,-0.136,,,,1787892186689029500,0.9389862386
1787892186696725958,-0.163,,,,1787892186696725958,0.9397558844
1787892186704422416,-0.183,,,,1787892186704422416,0.9405255302
1787892186712118874,-0.19,,,,1787892186712118874,0.941295176
1787892186719815332,-0.195,,,,1787892186719815332,0.9420648218
1787892186727511790,-0.2,,,,1787892186727511790,0.9428344676
1787892186735208248,-0.2,,,,1787892186735208248,0.9436041134
1787892186742904706,-0.19,,,,1787892186742904706,0.9443737592
1787892186750601164,-0.183,,,,1787892186750601164,0.945143405
1787892186758297622,-0.183,,,,1787892186758297622,0.9459130508
1787892186765994080,-0.18,,,,1787892186765994080,0.9466826966
1787892186773690538,-0.168,,,,1787892186773690538,0.9474523424
1787892186781386996,-0.161,,,,1787892186781386996,0.9482219882
1787892186789083454,-0.158,,,,1787892186789083454,0.948991634
1787892186796779912,-0.154,,,,1787892186796779912,0.9497612798
1787892186804476370,-0.156,,,,1787892186804476370,0.9505309256
1787892186812172828,-0.154,,,,1787892186812172828,0.9513005714
1787892186819869286,-0.144,,,,1787892186819869286,0.9520702172
1787892186827565744,-0.146,,,,1787892186827565744,0.952839863
1787892186835262202,-0.154,,,,1787892186835262202,0.9536095088
1787892186842958660,-0.146,,,,1787892186842958660,0.9543791546
1787892186850655150,-0.144,,,,1787892186850655150,0.9551488036
1787892186858351608,-0.149,,,,1787892186858351608,0.9559184494
1787892186866048066,-0.149,,,,1787892186866048066,0.9566880952
1787892186873744524,-0.146,,,,1787892186873744524,0.957457741
1787892186881440982,-0.146,,,,1787892186881440982,0.9582273868
1787892186889137440,-0.149,,,,1787892186889137440,0.9589970326
1787892186896833898,-0.146,,,,1787892186896833898,0.9597666784
1787892186904530356,-0.141,,,,1787892186904530356,0.9605363242
1787892186912226814,-0.132,,,,1787892186912226814,0.96130597
1787892186919923272,-0.129,,,,1787892186919923272,0.9620756158
1787892186927619730,-0.136,,,,1787892186927619730,0.9628452616
1787892186935316188,-0.132,,,,1787892186935316188,0.9636149074
1787892186943012646,-0.127,,,,1787892186943012646,0.9643845532
1787892186950709104,-0.129,,,,1787892186950709104,0.965154199
1787892186958405562,-0.127,,,,1787892186958405562,0.9659238448
1787892186966102020,-0.127,,,,1787892186966102020,0.9666934906
1787892186973798478,-0.129,,,,1787892186973798478,0.9674631364
1787892186981494936,-0.124,,,,1787892186981494936,0.9682327822
1787892186989191394,-0.119,,,,1787892186989191394,0.969002428
1787892186996887852,-0.124,,,,1787892186996887852,0.9697720738
1787892187004584310,-0.122,,,,1787892187004584310,0.9705417196
1787892187012280768,-0.1,,,,1787892187012280768,0.9713113654
1787892187019977226,-0.066,,,,1787892187019977226,0.9720810112
1787892187027673684,-0.051,,,,1787892187027673684,0.972850657
1787892187035370142,-0.068,,,,1787892187035370142,0.9736203028
1787892187043066600,-0.083,,,,1787892187043066600,0.9743899486
1787892187050763058,-0.095,,,,1787892187050763058,0.9751595944
1787892187058459516,-0.1,,,,1787892187058459516,0.9759292402
1787892187066155974,-0.097,,,,1787892187066155974,0.976698886
1787892187073852432,-0.09,,,,1787892187073852432,0.9774685318
1787892187081548890,-0.092,,,,1787892187081548890,0.9782381776
1787892187089245348,-0.117,,,,1787892187089245348,0.9790078234
1787892187096941806,-0.176,,,,1787892187096941806,0.9797774692
1787892187104638264,-0.163,,,,1787892187104638264,0.980547115
1787892187112334722,0.1,,,,1787892187112334722,0.9813167608
1787892187120031180,0.557,,,,1787892187120031180,0.9820864066
1787892187127727638,0.895,,,,1787892187127727638,0.9828560524
1787892187135424096,0.704,,,,1787892187135424096,0.9836256982
1787892187143120554,0.078,,,,1787892187143120554,0.984395344
1787892187150817012,-0.22,,,,1787892187150817012,0.9851649898
1787892187158513470,-0.107,,,,1787892187158513470,0.9859346356
1787892187166209928,-0.11,,,,1787892187166209928,0.9867042814
1787892187173906386,-0.178,,,,1787892187173906386,0.9874739272
1787892187181602844,-0.149,,,,1787892187181602844,0.988243573
1787892187189299302,-0.139,,,,1787892187189299302,0.9890132188
1787892187196995760,-0.156,,,,1787892187196995760,0.9897828646
1787892187204692218,-0.136,,,,1787892187204692218,0.9905525104
1787892187212388676,-0.119,,,,1787892187212388676,0.9913221562
1787892187220085134,-0.117,,,,1787892187220085134,0.992091802
1787892187227781592,-0.107,,,,1787892187227781592,0.9928614478
1787892187235478050,-0.097,,,,1787892187235478050,0.9936310936
1787892187243174508,-0.095,,,,1787892187243174508,0.9944007394
1787892187250870966,-0.09,,,,1787892187250870966,0.9951703852
1787892187258567424,-0.073,,,,1787892187258567424,0.995940031
1787892187266263882,-0.061,,,,1787892187266263882,0.9967096768
1787892187273960340,-0.058,,,,1787892187273960340,0.9974793226
1787892187281656798,-0.051,,,,1787892187281656798,0.9982489684
1787892187289353256,-0.034,,,,1787892187289353256,0.9990186142
1787892187297049714,-0.022,,,,1787892187297049714,0.99978826
1787892187304746172,-0.017,,,,1787892187304746172,1.0005579058
1787892187312442630,-0.002,,,,1787892187312442630,1.0013275516
1787892187320139088,0.004,,,,1787892187320139088,1.0020971974
1787892187327835546,0.007,,,,1787892187327835546,1.0028668432
1787892187335532004,0.019,,,,1787892187335532004,1.003636489
1787892187343228462,0.022,,,,1787892187343228462,1.0044061348
1787892187350924920,0.017,,,,1787892187350924920,1.0051757806
1787892187358621378,0.009,,,,1787892187358621378,1.0059454264
1787892187366317836,-0.009,,,,1787892187366317836,1.0067150722
1787892187374014294,-0.041,,,,1787892187374014294,1.007484718
1787892187381710752,-0.078,,,,1787892187381710752,1.0082543638
1787892187389407210,-0.122,,,,1787892187389407210,1.0090240096
1787892187397103668,-0.149,,,,1787892187397103668,1.0097936554
1787892187404800126,-0.168,,,,1787892187404800126,1.0105633012
1787892187412496616,-0.188,83.0,809.0,,1787892187412496616,1.0113329502
1787892187420193492,-0.198,,,,1787892187420193492,1.0121026378
1787892187427890368,-0.198,,,,1787892187427890368,1.0128723254
1787892187435587244,-0.2,,,,1787892187435587244,1.013642013
1787892187443284120,-0.198,,,,1787892187443284120,1.0144117006
1787892187450980996,-0.188,,,,1787892187450980996,1.0151813882
1787892187458677872,-0.18,,,,1787892187458677872,1.0159510758
1787892187466374748,-0.173,,,,1787892187466374748,1.0167207634
1787892187474071624,-0.168,,,,1787892187474071624,1.017490451
1787892187481768500,-0.158,,,,1787892187481768500,1.0182601386
1787892187489465376,-0.156,,,,1787892187489465376,1.0190298262
1787892187497162252,-0.156,,,,1787892187497162252,1.0197995138
1787892187504859128,-0.151,,,,1787892187504859128,1.0205692014
1787892187512556004,-0.141,,,,1787892187512556004,1.021338889
1787892187520252880,-0.134,,,,1787892187520252880,1.0221085766
1787892187527949756,-0.136,,,,1787892187527949756,1.0228782642
1787892187535646632,-0.144,,,,1787892187535646632,1.0236479518
1787892187543343508,-0.146,,,,1787892187543343508,1.0244176394
1787892187551040384,-0.139,,,,1787892187551040384,1.025187327
1787892187558737260,-0.134,,,,1787892187558737260,1.0259570146
1787892187566434136,-0.139,,,,1787892187566434136,1.0267267022
1787892187574131012,-0.139,,,,1787892187574131012,1.0274963898
1787892187581827888,-0.139,,,,1787892187581827888,1.0282660774
1787892187589524764,-0.141,,,,1787892187589524764,1.029035765
1787892187597221640,-0.139,,,,1787892187597221640,1.0298054526
1787892187604918516,-0.139,,,,1787892187604918516,1.0305751402
1787892187612615392,-0.139,,,,1787892187612615392,1.0313448278
1787892187620312268,-0.134,,,,1787892187620312268,1.0321145154
1787892187628009144,-0.134,,,,1787892187628009144,1.032884203
1787892187635706020,-0.134,,,,1787892187635706020,1.0336538906
1787892187643402896,-0.129,,,,1787892187643402896,1.0344235782
1787892187651099772,-0.124,,,,1787892187651099772,1.0351932658
1787892187658796648,-0.124,,,,1787892187658796648,1.0359629534
1787892187666493524,-0.124,,,,1787892187666493524,1.036732641
1787892187674190400,-0.114,,,,1787892187674190400,1.0375023286
1787892187681887276,-0.112,,,,1787892187681887276,1.0382720162
1787892187689584152,-0.119,,,,1787892187689584152,1.0390417038
1787892187697281028,-0.124,,,,1787892187697281028,1.0398113914
1787892187704977904,-0.117,,,,1787892187704977904,1.040581079
1787892187712674780,-0.1,,,,1787892187712674780,1.0413507666
1787892187720371656,-0.075,,,,1787892187720371656,1.0421204542
1787892187728068532,-0.066,,,,1787892187728068532,1.0428901418
1787892187735765408,-0.075,,,,1787892187735765408,1.0436598294
1787892187743462284,-0.088,,,,1787892187743462284,1.044429517
1787892187751159160,-0.095,,,,1787892187751159160,1.0451992046
1787892187758856036,-0.095,,,,1787892187758856036,1.0459688922
1787892187766552912,-0.09,,,,1787892187766552912,1.0467385798
1787892187774249788,-0.092,,,,1787892187774249788,1.0475082674
1787892187781946664,-0.092,,,,1787892187781946664,1.048277955
1787892187789643540,-0.11,,,,1787892187789643540,1.0490476426
1787892187797340416,-0.168,,,,1787892187797340416,1.0498173302
1787892187805037292,-0.163,,,,1787892187805037292,1.0505870178
1787892187812734168,0.083,,,,1787892187812734168,1.0513567054
1787892187820431044,0.528,,,,1787892187820431044,1.052126393
1787892187828127920,0.907,,,,1787892187828127920,1.0528960806
1787892187835824796,0.789,,,,1787892187835824796,1.0536657682
1787892187843521672,0.18,,,,1787892187843521672,1.0544354558
1787892187851218548,-0.18,,,,1787892187851218548,1.0552051434
1787892187858915424,-0.102,,,,1787892187858915424,1.055974831
1787892187866612300,-0.11,,,,1787892187866612300,1.0567445186
1787892187874309176,-0.202,,,,1787892187874309176,1.0575142062
1787892187882006052,-0.163,,,,1787892187882006052,1.0582838938
1787892187889702928,-0.136,,,,1787892187889702928,1.0590535814
1787892187897399804,-0.166,,,,1787892187897399804,1.059823269
1787892187905096680,-0.156,,,,1787892187905096680,1.0605929566
1787892187912793556,-0.132,,,,1787892187912793556,1.0613626442
1787892187920490432,-0.132,,,,1787892187920490432,1.0621323318
1787892187928187308,-0.122,,,,1787892187928187308,1.0629020194
1787892187935884184,-0.102,,,,1787892187935884184,1.063671707
1787892187943581060,-0.1,,,,1787892187943581060,1.0644413946
1787892187951277936,-0.095,,,,1787892187951277936,1.0652110822
1787892187958974812,-0.08,,,,1787892187958974812,1.0659807698
1787892187966671688,-0.073,,,,1787892187966671688,1.0667504574
1787892187974368602,-0.068,,,,1787892187974368602,1.0675201488
1787892187982065060,-0.051,,,,1787892187982065060,1.0682897946
1787892187989761518,-0.041,,,,1787892187989761518,1.0690594404
1787892187997457976,-0.034,,,,1787892187997457976,1.0698290862
1787892188005154434,-0.022,,,,1787892188005154434,1.070598732
1787892188012850892,-0.004,,,,1787892188012850892,1.0713683778
1787892188020547350,0.007,,,,1787892188020547350,1.0721380236
1787892188028243808,0.012,,,,1787892188028243808,1.0729076694
1787892188035940266,0.017,,,,1787892188035940266,1.0736773152
1787892188043636724,0.024,,,,1787892188043636724,1.074446961
1787892188051333182,0.031,,,,1787892188051333182,1.0752166068
1787892188059029640,0.026,,,,1787892188059029640,1.0759862526
1787892188066726098,0.002,,,,1787892188066726098,1.0767558984
1787892188074422556,-0.026,,,,1787892188074422556,1.0775255442
1787892188082119014,-0.056,,,,1787892188082119014,1.07829519
1787892188089815472,-0.09,,,,1787892188089815472,1.0790648358
1787892188097511930,-0.122,,,,1787892188097511930,1.0798344816
1787892188105208388,-0.146,,,,1787892188105208388,1.0806041274
1787892188112904846,-0.161,,,,1787892188112904846,1.0813737732
1787892188120601304,-0.173,,,,1787892188120601304,1.082143419
1787892188128297762,-0.176,,,,1787892188128297762,1.0829130648
1787892188135994220,-0.171,,,,1787892188135994220,1.0836827106
1787892188143690678,-0.173,,,,1787892188143690678,1.0844523564
1787892188151387136,-0.173,,,,1787892188151387136,1.0852220022
1787892188159083594,-0.166,,,,1787892188159083594,1.085991648
1787892188166780052,-0.158,,,,1787892188166780052,1.0867612938
1787892188174476510,-0.151,,,,1787892188174476510,1.0875309396
1787892188182172968,-0.149,,,,1787892188182172968,1.0883005854
1787892188189869426,-0.154,,,,1787892188189869426,1.0890702312
1787892188197565884,-0.151,,,,1787892188197565884,1.089839877
1787892188205262342,-0.149,,,,1787892188205262342,1.0906095228
1787892188212958800,-0.149,,,,1787892188212958800,1.0913791686
1787892188220655258,-0.146,,,,1787892188220655258,1.0921488144
1787892188228351716,-0.146,,,,1787892188228351716,1.0929184602
1787892188236048174,-0.144,,,,1787892188236048174,1.093688106
1787892188243744632,-0.144,,,,1787892188243744632,1.0944577518
1787892188251441090,-0.144,,,,1787892188251441090,1.0952273976
1787892188259137548,-0.136,,,,1787892188259137548,1.0959970434
1787892188266834006,-0.132,,,,1787892188266834006,1.0967666892
1787892188274530464,-0.129,,,,1787892188274530464,1.097536335
1787892188282226922,-0.129,,,,1787892188282226922,1.0983059808
1787892188289923380,-0.132,,,,1787892188289923380,1.0990756266
1787892188297619838,-0.129,,,,1787892188297619838,1.0998452724
1787892188305316296,-0.132,,,,1787892188305316296,1.1006149182
1787892188313012754,-0.136,,,,1787892188313012754,1.101384564
1787892188320709212,-0.134,,,,1787892188320709212,1.1021542098
1787892188328405670,-0.127,,,,1787892188328405670,1.1029238556
1787892188336102128,-0.124,,,,1787892188336102128,1.1036935014
1787892188343798586,-0.122,,,,1787892188343798586,1.1044631472
1787892188351495044,-0.117,,,,1787892188351495044,1.105232793
1787892188359191502,-0.114,,,,1787892188359191502,1.1060024388
1787892188366887960,-0.117,,,,1787892188366887960,1.1067720846
1787892188374584418,-0.11,,,,1787892188374584418,1.1075417304
1787892188382280876,-0.105,,,,1787892188382280876,1.1083113762
1787892188389977334,-0.119,,,,1787892188389977334,1.109081022
1787892188397673792,-0.122,,,,1787892188397673792,1.1098506678
1787892188405370250,-0.107,,,,1787892188405370250,1.1106203136
1787892188413066708,-0.11,,,,1787892188413066708,1.1113899594
1787892188420763166,-0.114,,,,1787892188420763166,1.1121596052
1787892188428459624,-0.112,,,,1787892188428459624,1.112929251
1787892188436156082,-0.1,,,,1787892188436156082,1.1136988968
1787892188443852540,-0.1,,,,1787892188443852540,1.1144685426
1787892188451548998,-0.107,,,,1787892188451548998,1.1152381884
1787892188459245456,-0.107,,,,1787892188459245456,1.1160078342
1787892188466941914,-0.105,,,,1787892188466941914,1.11677748
1787892188474638372,-0.11,,,,1787892188474638372,1.1175471258
1787892188482334830,-0.112,,,,1787892188482334830,1.1183167716
1787892188490031288,-0.11,,,,1787892188490031288,1.1190864174
1787892188497727746,-0.107,,,,1787892188497727746,1.1198560632
1787892188505424204,-0.1,,,,1787892188505424204,1.120625709
1787892188513120662,-0.078,,,,1787892188513120662,1.1213953548
1787892188520817120,-0.053,,,,1787892188520817120,1.1221650006
1787892188528513578,-0.046,,,,1787892188528513578,1.1229346464
1787892188536210068,-0.066,82.0,785.0,,1787892188536210068,1.1237042954
1787892188543906526,-0.085,,,,1787892188543906526,1.1244739412
1787892188551602984,-0.085,,,,1787892188551602984,1.125243587
1787892188559299442,-0.085,,,,1787892188559299442,1.1260132328
1787892188566995900,-0.092,,,,1787892188566995900,1.1267828786
1787892188574692358,-0.092,,,,1787892188574692358,1.1275525244
1787892188582388816,-0.095,,,,1787892188582388816,1.1283221702
1787892188590085274,-0.141,,,,1787892188590085274,1.129091816
1787892188597781732,-0.173,,,,1787892188597781732,1.1298614618
1787892188605478190,-0.019,,,,1787892188605478190,1.1306311076
1787892188613174648,0.349,,,,1787892188613174648,1.1314007534
1787892188620871106,0.775,,,,1787892188620871106,1.1321703992
1787892188628567564,0.897,,,,1787892188628567564,1.132940045
1787892188636264022,0.43,,,,1787892188636264022,1.1337096908
1787892188643960480,-0.095,,,,1787892188643960480,1.1344793366
1787892188651656938,-0.134,,,,1787892188651656938,1.1352489824
1787892188659353396,-0.075,,,,1787892188659353396,1.1360186282
1787892188667049854,-0.176,,,,1787892188667049854,1.136788274
1787892188674746312,-0.183,,,,1787892188674746312,1.1375579198
1787892188682442770,-0.136,,,,1787892188682442770,1.1383275656
1787892188690139228,-0.154,,,,1787892188690139228,1.1390972114
1787892188697835686,-0.154,,,,1787892188697835686,1.1398668572
1787892188705532144,-0.129,,,,1787892188705532144,1.140636503
1787892188713228602,-0.132,,,,1787892188713228602,1.1414061488
1787892188720925060,-0.134,,,,1787892188720925060,1.1421757946
1787892188728621518,-0.114,,,,1787892188728621518,1.1429454404
1787892188736317976,-0.092,,,,1787892188736317976,1.1437150862
1787892188744014434,-0.088,,,,1787892188744014434,1.144484732
1787892188751710892,-0.085,,,,1787892188751710892,1.1452543778
1787892188759407350,-0.075,,,,1787892188759407350,1.1460240236
1787892188767103808,-0.068,,,,1787892188767103808,1.1467936694
1787892188774800266,-0.058,,,,1787892188774800266,1.1475633152
1787892188782496724,-0.048,,,,1787892188782496724,1.148332961
1787892188790193182,-0.041,,,,1787892188790193182,1.1491026068
1787892188797889640,-0.034,,,,1787892188797889640,1.1498722526
1787892188805586098,-0.024,,,,1787892188805586098,1.1506418984
1787892188813282556,-0.012,,,,1787892188813282556,1.1514115442
1787892188820979014,0.0,,,,1787892188820979014,1.15218119
1787892188828675472,0.007,,,,1787892188828675472,1.1529508358
1787892188836371930,0.007,,,,1787892188836371930,1.1537204816
1787892188844068388,0.002,,,,1787892188844068388,1.1544901274
1787892188851764846,0.002,,,,1787892188851764846,1.1552597732
1787892188859461304,0.002,,,,1787892188859461304,1.156029419
1787892188867157762,-0.014,,,,1787892188867157762,1.1567990648
1787892188874854220,-0.041,,,,1787892188874854220,1.1575687106
1787892188882550678,-0.073,,,,1787892188882550678,1.1583383564
1787892188890247136,-0.105,,,,1787892188890247136,1.1591080022
1787892188897943594,-0.134,,,,1787892188897943594,1.159877648
1787892188905640052,-0.156,,,,1787892188905640052,1.1606472938
1787892188913336510,-0.171,,,,1787892188913336510,1.1614169396
1787892188921032968,-0.173,,,,1787892188921032968,1.1621865854
1787892188928729426,-0.178,,,,1787892188928729426,1.1629562312
1787892188936425884,-0.178,,,,1787892188936425884,1.163725877
1787892188944122342,-0.18,,,,1787892188944122342,1.1644955228
1787892188951818800,-0.18,,,,1787892188951818800,1.1652651686
1787892188959515258,-0.171,,,,1787892188959515258,1.1660348144
1787892188967211716,-0.166,,,,1787892188967211716,1.1668044602
1787892188974908174,-0.171,,,,1787892188974908174,1.167574106
1787892188982604632,-0.166,,,,1787892188982604632,1.1683437518
1787892188990301090,-0.156,,,,1787892188990301090,1.1691133976
1787892188997997548,-0.146,,,,1787892188997997548,1.1698830434
1787892189005694006,-0.149,,,,1787892189005694006,1.1706526892
1787892189013390464,-0.158,,,,1787892189013390464,1.171422335
1787892189021086922,-0.158,,,,1787892189021086922,1.1721919808
1787892189028783380,-0.154,,,,1787892189028783380,1.1729616266
1787892189036479838,-0.151,,,,1787892189036479838,1.1737312724
1787892189044176296,-0.156,,,,1787892189044176296,1.1745009182
1787892189051872754,-0.156,,,,1787892189051872754,1.175270564
1787892189059569212,-0.149,,,,1787892189059569212,1.1760402098
1787892189067265670,-0.146,,,,1787892189067265670,1.1768098556
1787892189074962128,-0.149,,,,1787892189074962128,1.1775795014
1787892189082658586,-0.146,,,,1787892189082658586,1.1783491472
1787892189090355044,-0.144,,,,1787892189090355044,1.179118793
1787892189098051534,-0.146,,,,1787892189098051534,1.179888442
1787892189105747992,-0.146,,,,1787892189105747992,1.1806580878
1787892189113444450,-0.139,,,,1787892189113444450,1.1814277336
1787892189121140908,-0.141,,,,1787892189121140908,1.1821973794
1787892189128837366,-0.144,,,,1787892189128837366,1.1829670252
1787892189136533824,-0.136,,,,1787892189136533824,1.183736671
1787892189144230282,-0.139,,,,1787892189144230282,1.1845063168
1787892189151926740,-0.141,,,,1787892189151926740,1.1852759626
1787892189159623198,-0.139,,,,1787892189159623198,1.1860456084
1787892189167319656,-0.134,,,,1787892189167319656,1.1868152542
1787892189175016114,-0.132,,,,1787892189175016114,1.1875849
1787892189182712572,-0.124,,,,1787892189182712572,1.1883545458
1787892189190409030,-0.117,,,,1787892189190409030,1.1891241916
1787892189198105488,-0.114,,,,1787892189198105488,1.1898938374
1787892189205801946,-0.117,,,,1787892189205801946,1.1906634832
1787892189213498404,-0.11,,,,1787892189213498404,1.191433129
1787892189221194862,-0.105,,,,1787892189221194862,1.1922027748
1787892189228891320,-0.107,,,,1787892189228891320,1.1929724206
1787892189236587778,-0.1,,,,1787892189236587778,1.1937420664
1787892189244284236,-0.092,,,,1787892189244284236,1.1945117122
1787892189251980694,-0.1,,,,1787892189251980694,1.195281358
1787892189259677152,-0.11,,,,1787892189259677152,1.1960510038
1787892189267373610,-0.102,,,,1787892189267373610,1.1968206496
1787892189275070068,-0.095,,,,1787892189275070068,1.1975902954
1787892189282766526,-0.097,,,,1787892189282766526,1.1983599412
1787892189290462984,-0.102,,,,1787892189290462984,1.199129587
1787892189298159442,-0.11,,,,1787892189298159442,1.1998992328
1787892189305855900,-0.117,,,,1787892189305855900,1.2006688786
1787892189313552358,-0.112,,,,1787892189313552358,1.2014385244
1787892189321248816,-0.102,,,,1787892189321248816,1.2022081702
1787892189328945274,-0.097,,,,1787892189328945274,1.202977816
1787892189336641732,-0.073,,,,1787892189336641732,1.2037474618
1787892189344338190,-0.053,,,,1787892189344338190,1.2045171076
1787892189352034648,-0.063,,,,1787892189352034648,1.2052867534
1787892189359731106,-0.075,,,,1787892189359731106,1.2060563992
1787892189367427564,-0.083,,,,1787892189367427564,1.206826045
1787892189375124022,-0.095,,,,1787892189375124022,1.2075956908
1787892189382820480,-0.1,,,,1787892189382820480,1.2083653366
1787892189390516938,-0.095,,,,1787892189390516938,1.2091349824
1787892189398213396,-0.095,,,,1787892189398213396,1.2099046282
1787892189405909854,-0.112,,,,1787892189405909854,1.210674274
1787892189413606312,-0.158,,,,1787892189413606312,1.2114439198
1787892189421302770,-0.171,,,,1787892189421302770,1.2122135656
1787892189428999228,0.012,,,,1787892189428999228,1.2129832114
1787892189436695686,0.403,,,,1787892189436695686,1.2137528572
1787892189444392144,0.792,,,,1787892189444392144,1.214522503
1787892189452088602,0.804,,,,1787892189452088602,1.2152921488
1787892189459785060,0.286,,,,1787892189459785060,1.2160617946
1787892189467481518,-0.149,,,,1787892189467481518,1.2168314404
1787892189475177976,-0.122,,,,1787892189475177976,1.2176010862
1787892189482874434,-0.095,,,,1787892189482874434,1.218370732
1787892189490570892,-0.198,,,,1787892189490570892,1.2191403778
1787892189498267350,-0.188,,,,1787892189498267350,1.2199100236
1787892189505963808,-0.149,,,,1787892189505963808,1.2206796694
1787892189513660266,-0.166,,,,1787892189513660266,1.2214493152
1787892189521356724,-0.161,,,,1787892189521356724,1.222218961
1787892189529053182,-0.139,,,,1787892189529053182,1.2229886068
1787892189536749640,-0.134,,,,1787892189536749640,1.2237582526
1787892189544446098,-0.127,,,,1787892189544446098,1.2245278984
1787892189552142556,-0.112,,,,1787892189552142556,1.2252975442
1787892189559839014,-0.105,,,,1787892189559839014,1.22606719
1787892189567535472,-0.105,,,,1787892189567535472,1.2268368358
1787892189575231930,-0.097,,,,1787892189575231930,1.2276064816
1787892189582928388,-0.085,,,,1787892189582928388,1.2283761274
1787892189590624846,-0.078,,,,1787892189590624846,1.2291457732
1787892189598321304,-0.068,,,,1787892189598321304,1.229915419
1787892189606017762,-0.056,,,,1787892189606017762,1.2306850648
1787892189613714220,-0.044,,,,1787892189613714220,1.2314547106
1787892189621410678,-0.036,,,,1787892189621410678,1.2322243564
1787892189629107136,-0.034,,,,1787892189629107136,1.2329940022
1787892189636803594,-0.029,,,,1787892189636803594,1.233763648
1787892189644500052,-0.019,,,,1787892189644500052,1.2345332938
1787892189652196510,-0.007,,,,1787892189652196510,1.2353029396
1787892189659893000,-0.004,81.0,710.0,,1787892189659893000,1.2360725886
1787892189667589806,-0.014,,701.0,,1787892189667589806,1.2368422692
1787892189675286612,-0.014,,,,1787892189675286612,1.2376119498
1787892189682983418,-0.012,,,,1787892189682983418,1.2383816304
1787892189690680224,-0.022,,,,1787892189690680224,1.239151311
1787892189698377030,-0.044,,,,1787892189698377030,1.2399209916
1787892189706073836,-0.073,,,,1787892189706073836,1.2406906722
1787892189713770642,-0.105,,,,1787892189713770642,1.2414603528
1787892189721467448,-0.124,,,,1787892189721467448,1.2422300334
1787892189729164254,-0.139,,,,1787892189729164254,1.242999714
1787892189736861060,-0.156,,,,1787892189736861060,1.2437693946
1787892189744557866,-0.166,,,,1787892189744557866,1.2445390752
1787892189752254672,-0.166,,,,1787892189752254672,1.2453087558
1787892189759951478,-0.168,,,,1787892189759951478,1.2460784364
1787892189767648284,-0.171,,,,1787892189767648284,1.246848117
1787892189775345090,-0.168,,,,1787892189775345090,1.2476177976
1787892189783041896,-0.161,,,,1787892189783041896,1.2483874782
1787892189790738702,-0.158,,,,1787892189790738702,1.2491571588
1787892189798435508,-0.151,,,,1787892189798435508,1.2499268394
1787892189806132314,-0.149,,,,1787892189806132314,1.25069652
1787892189813829120,-0.149,,,,1787892189813829120,1.2514662006
1787892189821525926,-0.149,,,,1787892189821525926,1.2522358812
1787892189829222732,-0.149,,,,1787892189829222732,1.2530055618
1787892189836919538,-0.146,,,,1787892189836919538,1.2537752424
1787892189844616344,-0.149,,,,1787892189844616344,1.254544923
1787892189852313150,-0.149,,,,1787892189852313150,1.2553146036
1787892189860009956,-0.141,,,,1787892189860009956,1.2560842842
1787892189867706762,-0.146,,,,1787892189867706762,1.2568539648
1787892189875403568,-0.149,,,,1787892189875403568,1.2576236454
1787892189883100374,-0.141,,,,1787892189883100374,1.258393326
1787892189890797180,-0.141,,,,1787892189890797180,1.2591630066
1787892189898493986,-0.141,,,,1787892189898493986,1.2599326872
1787892189906190792,-0.139,,,,1787892189906190792,1.2607023678
1787892189913887598,-0.139,,,,1787892189913887598,1.2614720484
1787892189921584404,-0.136,,,,1787892189921584404,1.262241729
1787892189929281210,-0.136,,,,1787892189929281210,1.2630114096
1787892189936978016,-0.134,,,,1787892189936978016,1.2637810902
1787892189944674822,-0.132,,,,1787892189944674822,1.2645507708
1787892189952371628,-0.132,,,,1787892189952371628,1.2653204514
1787892189960068434,-0.134,,,,1787892189960068434,1.266090132
1787892189967765240,-0.136,,,,1787892189967765240,1.2668598126
1787892189975462046,-0.132,,,,1787892189975462046,1.2676294932
1787892189983158852,-0.122,,,,1787892189983158852,1.2683991738
1787892189990855658,-0.122,,,,1787892189990855658,1.2691688544
1787892189998552464,-0.122,,,,1787892189998552464,1.269938535
1787892190006249270,-0.119,,,,1787892190006249270,1.2707082156
1787892190013946076,-0.119,,,,1787892190013946076,1.2714778962
1787892190021642882,-0.117,,,,1787892190021642882,1.2722475768
1787892190029339688,-0.102,,,,1787892190029339688,1.2730172574
1787892190037036494,-0.073,,,,1787892190037036494,1.273786938
1787892190044733300,-0.061,,,,1787892190044733300,1.2745566186
1787892190052430106,-0.073,,,,1787892190052430106,1.2753262992
1787892190060126912,-0.092,,,,1787892190060126912,1.2760959798
1787892190067823718,-0.105,,,,1787892190067823718,1.2768656604
1787892190075520524,-0.107,,,,1787892190075520524,1.277635341
1787892190083217330,-0.107,,,,1787892190083217330,1.2784050216
1787892190090914136,-0.107,,,,1787892190090914136,1.2791747022
1787892190098610942,-0.102,,,,1787892190098610942,1.2799443828
1787892190106307748,-0.127,,,,1787892190106307748,1.2807140634
1787892190114004554,-0.183,,,,1787892190114004554,1.281483744
1787892190121701360,-0.149,,,,1787892190121701360,1.2822534246
1787892190129398166,0.11,,,,1787892190129398166,1.2830231052
1787892190137094972,0.518,,,,1787892190137094972,1.2837927858
1787892190144791778,0.804,,,,1787892190144791778,1.2845624664
1787892190152488584,0.606,,,,1787892190152488584,1.285332147
1787892190160185390,0.046,,,,1787892190160185390,1.2861018276
1787892190167882196,-0.198,,,,1787892190167882196,1.2868715082
1787892190175579002,-0.1,,,,1787892190175579002,1.2876411888
1787892190183275808,-0.132,,,,1787892190183275808,1.2884108694
1787892190190972614,-0.212,,,,1787892190190972614,1.28918055
1787892190198669420,-0.173,,,,1787892190198669420,1.2899502306
1787892190206366226,-0.149,,,,1787892190206366226,1.2907199112
1787892190214063032,-0.166,,,,1787892190214063032,1.2914895918
1787892190221759896,-0.146,,,,1787892190221759896,1.2922592782
1787892190229456424,-0.124,,,,1787892190229456424,1.293028931
1787892190237152952,-0.124,,,,1787892190237152952,1.2937985838
1787892190244849480,-0.117,,,,1787892190244849480,1.2945682366
1787892190252546008,-0.1,,,,1787892190252546008,1.2953378894
1787892190260242536,-0.097,,,,1787892190260242536,1.2961075422
1787892190267939064,-0.092,,,,1787892190267939064,1.296877195
1787892190275635592,-0.08,,,,1787892190275635592,1.2976468478
1787892190283332120,-0.075,,,,1787892190283332120,1.2984165006
1787892190291028648,-0.063,,,,1787892190291028648,1.2991861534
1787892190298725176,-0.041,,,,1787892190298725176,1.2999558062
1787892190306421704,-0.036,,,,1787892190306421704,1.300725459
1787892190314118232,-0.036,,,,1787892190314118232,1.3014951118
1787892190321814760,-0.019,,,,1787892190321814760,1.3022647646
1787892190329511288,-0.007,,,,1787892190329511288,1.3030344174
1787892190337207816,0.002,,,,1787892190337207816,1.3038040702
1787892190344904344,0.012,,,,1787892190344904344,1.304573723
1787892190352600872,0.014,,,,1787892190352600872,1.3053433758
1787892190360297400,0.014,,,,1787892190360297400,1.3061130286
1787892190367993928,0.014,,,,1787892190367993928,1.3068826814
1787892190375690456,0.012,,,,1787892190375690456,1.3076523342
1787892190383386984,-0.012,,,,1787892190383386984,1.308421987
1787892190391083512,-0.046,,,,1787892190391083512,1.3091916398
1787892190398780040,-0.078,,,,1787892190398780040,1.3099612926
1787892190406476568,-0.119,,,,1787892190406476568,1.3107309454
1787892190414173096,-0.154,,,,1787892190414173096,1.3115005982
1787892190421869624,-0.171,,,,1787892190421869624,1.312270251
1787892190429566152,-0.188,,,,1787892190429566152,1.3130399038
1787892190437262680,-0.205,,,,1787892190437262680,1.3138095566
1787892190444959208,-0.207,,,,1787892190444959208,1.3145792094
1787892190452655736,-0.198,,,,1787892190452655736,1.3153488622
1787892190460352264,-0.198,,,,1787892190460352264,1.316118515
1787892190468048792,-0.195,,,,1787892190468048792,1.3168881678
1787892190475745320,-0.185,,,,1787892190475745320,1.3176578206
1787892190483441848,-0.173,,,,1787892190483441848,1.3184274734
1787892190491138376,-0.171,,,,1787892190491138376,1.3191971262
1787892190498834904,-0.176,,,,1787892190498834904,1.319966779
1787892190506531432,-0.183,,,,1787892190506531432,1.3207364318
1787892190514227960,-0.176,,,,1787892190514227960,1.3215060846
1787892190521924488,-0.166,,,,1787892190521924488,1.3222757374
1787892190529621016,-0.166,,,,1787892190529621016,1.3230453902
1787892190537317544,-0.163,,,,1787892190537317544,1.323815043
1787892190545014072,-0.158,,,,1787892190545014072,1.3245846958
1787892190552710600,-0.163,,,,1787892190552710600,1.3253543486
1787892190560407128,-0.163,,,,1787892190560407128,1.3261240014
1787892190568103656,-0.163,,,,1787892190568103656,1.3268936542
1787892190575800184,-0.161,,,,1787892190575800184,1.327663307
1787892190583496712,-0.154,,,,1787892190583496712,1.3284329598
1787892190591193240,-0.146,,,,1787892190591193240,1.3292026126
1787892190598889768,-0.151,,,,1787892190598889768,1.3299722654
1787892190606586296,-0.158,,,,1787892190606586296,1.3307419182
1787892190614282824,-0.158,,,,1787892190614282824,1.331511571
1787892190621979352,-0.151,,,,1787892190621979352,1.3322812238
1787892190629675880,-0.146,,,,1787892190629675880,1.3330508766
1787892190637372408,-0.149,,,,1787892190637372408,1.3338205294
1787892190645068936,-0.146,,,,1787892190645068936,1.3345901822
1787892190652765464,-0.119,,,,1787892190652765464,1.335359835
1787892190660461992,-0.088,,,,1787892190660461992,1.3361294878
1787892190668158520,-0.088,,,,1787892190668158520,1.3368991406
1787892190675855048,-0.107,,,,1787892190675855048,1.3376687934
1787892190683551576,-0.124,,,,1787892190683551576,1.3384384462
1787892190691248104,-0.127,,,,1787892190691248104,1.339208099
1787892190698944632,-0.122,,,,1787892190698944632,1.3399777518
1787892190706641160,-0.122,,,,1787892190706641160,1.3407474046
1787892190714337688,-0.114,,,,1787892190714337688,1.3415170574
1787892190722034216,-0.11,,,,1787892190722034216,1.3422867102
1787892190729730744,-0.139,,,,1787892190729730744,1.343056363
1787892190737427272,-0.19,,,,1787892190737427272,1.3438260158
1787892190745123800,-0.102,,,,1787892190745123800,1.3445956686
1787892190752820328,0.227,,,,1787892190752820328,1.3453653214
1787892190760516856,0.648,,,,1787892190760516856,1.3461349742
1787892190768213384,0.799,,,,1787892190768213384,1.346904627
1787892190775909912,0.398,,,,1787892190775909912,1.3476742798
1787892190783606450,-0.136,82.0,796.0,,1787892190783606450,1.3484439336
1787892190791302908,-0.212,,,,1787892190791302908,1.3492135794
1787892190798999366,-0.114,,,,1787892190798999366,1.3499832252
1787892190806695824,-0.176,,,,1787892190806695824,1.350752871
1787892190814392282,-0.2,,,,1787892190814392282,1.3515225168
1787892190822088740,-0.151,,,,1787892190822088740,1.3522921626
1787892190829785198,-0.154,,,,1787892190829785198,1.3530618084
1787892190837481656,-0.161,,,,1787892190837481656,1.3538314542
1787892190845178114,-0.144,,,,1787892190845178114,1.3546011
1787892190852874572,-0.129,,,,1787892190852874572,1.3553707458
1787892190860571030,-0.117,,,,1787892190860571030,1.3561403916
1787892190868267488,-0.11,,,,1787892190868267488,1.3569100374
1787892190875963946,-0.102,,,,1787892190875963946,1.3576796832
1787892190883660404,-0.092,,,,1787892190883660404,1.358449329
1787892190891356862,-0.08,,,,1787892190891356862,1.3592189748
1787892190899053320,-0.073,,,,1787892190899053320,1.3599886206
1787892190906749778,-0.061,,,,1787892190906749778,1.3607582664
1787892190914446236,-0.041,,,,1787892190914446236,1.3615279122
1787892190922142694,-0.029,,,,1787892190922142694,1.362297558
1787892190929839152,-0.024,,,,1787892190929839152,1.3630672038
1787892190937535610,-0.007,,,,1787892190937535610,1.3638368496
1787892190945232068,0.012,,,,1787892190945232068,1.3646064954
1787892190952928526,0.022,,,,1787892190952928526,1.3653761412
1787892190960624984,0.039,,,,1787892190960624984,1.366145787
1787892190968321442,0.046,,,,1787892190968321442,1.3669154328
1787892190976017900,0.046,,,,1787892190976017900,1.3676850786
1787892190983714358,0.048,,,,1787892190983714358,1.3684547244
1787892190991410816,0.039,,,,1787892190991410816,1.3692243702
1787892190999107274,0.014,,,,1787892190999107274,1.369994016
1787892191006803732,-0.017,,,,1787892191006803732,1.3707636618
1787892191014500190,-0.053,,,,1787892191014500190,1.3715333076
1787892191022196648,-0.095,,,,1787892191022196648,1.3723029534
1787892191029893106,-0.132,,,,1787892191029893106,1.3730725992
1787892191037589564,-0.161,,,,1787892191037589564,1.373842245
1787892191045286022,-0.173,,,,1787892191045286022,1.3746118908
1787892191052982480,-0.19,,,,1787892191052982480,1.3753815366
1787892191060678938,-0.205,,,,1787892191060678938,1.3761511824
1787892191068375396,-0.198,,,,1787892191068375396,1.3769208282
1787892191076071854,-0.183,,,,1787892191076071854,1.377690474
1787892191083768312,-0.183,,,,1787892191083768312,1.3784601198
1787892191091464770,-0.185,,,,1787892191091464770,1.3792297656
1787892191099161228,-0.173,,,,1787892191099161228,1.3799994114
1787892191106857686,-0.168,,,,1787892191106857686,1.3807690572
1787892191114554144,-0.166,,,,1787892191114554144,1.381538703
1787892191122250602,-0.161,,,,1787892191122250602,1.3823083488
1787892191129947060,-0.154,,,,1787892191129947060,1.3830779946
1787892191137643518,-0.146,,,,1787892191137643518,1.3838476404
1787892191145339976,-0.149,,,,1787892191145339976,1.3846172862
1787892191153036434,-0.146,,,,1787892191153036434,1.385386932
1787892191160732892,-0.139,,,,1787892191160732892,1.3861565778
1787892191168429350,-0.144,,,,1787892191168429350,1.3869262236
1787892191176125808,-0.151,,,,1787892191176125808,1.3876958694
1787892191183822266,-0.141,,,,1787892191183822266,1.3884655152
1787892191191518724,-0.136,,,,1787892191191518724,1.389235161
1787892191199215182,-0.132,,,,1787892191199215182,1.3900048068
1787892191206911640,-0.122,,,,1787892191206911640,1.3907744526
1787892191214608098,-0.122,,,,1787892191214608098,1.3915440984
1787892191222304556,-0.136,,,,1787892191222304556,1.3923137442
1787892191230001014,-0.141,,,,1787892191230001014,1.39308339
1787892191237697472,-0.132,,,,1787892191237697472,1.3938530358
1787892191245393930,-0.134,,,,1787892191245393930,1.3946226816
1787892191253090388,-0.136,,,,1787892191253090388,1.3953923274
1787892191260786846,-0.11,,,,1787892191260786846,1.3961619732
1787892191268483304,-0.078,,,,1787892191268483304,1.396931619
1787892191276179762,-0.07,,,,1787892191276179762,1.3977012648
1787892191283876220,-0.088,,,,1787892191283876220,1.3984709106
1787892191291572678,-0.112,,,,1787892191291572678,1.3992405564
1787892191299269136,-0.127,,,,1787892191299269136,1.4000102022
1787892191306965594,-0.119,,,,1787892191306965594,1.400779848
1787892191314662052,-0.11,,,,1787892191314662052,1.4015494938
1787892191322358510,-0.107,,,,1787892191322358510,1.4023191396
1787892191330054968,-0.114,,,,1787892191330054968,1.4030887854
1787892191337751426,-0.146,,,,1787892191337751426,1.4038584312
1787892191345447918,-0.205,81.0,822.0,,1787892191345447918,1.4046280804
1787892191353144376,-0.141,,697.0,,1787892191353144376,1.4053977262
1787892191360840834,0.178,,,,1787892191360840834,1.406167372
1787892191368537292,0.626,,,,1787892191368537292,1.4069370178
1787892191376233750,0.853,,,,1787892191376233750,1.4077066636
1787892191383930208,0.498,,,,1787892191383930208,1.4084763094
1787892191391626666,-0.1,,,,1787892191391626666,1.4092459552
1787892191399323124,-0.232,,,,1787892191399323124,1.410015601
1787892191407019582,-0.112,,,,1787892191407019582,1.4107852468
1787892191414716040,-0.168,,,,1787892191414716040,1.4115548926
1787892191422412498,-0.222,,,,1787892191422412498,1.4123245384
1787892191430108956,-0.176,,,,1787892191430108956,1.4130941842
1787892191437805414,-0.171,,,,1787892191437805414,1.41386383
1787892191445501872,-0.193,,,,1787892191445501872,1.4146334758
1787892191453198330,-0.173,,,,1787892191453198330,1.4154031216
1787892191460894788,-0.151,,,,1787892191460894788,1.4161727674
1787892191468591246,-0.151,,,,1787892191468591246,1.4169424132
1787892191476287704,-0.136,,,,1787892191476287704,1.417712059
1787892191483984162,-0.122,,,,1787892191483984162,1.4184817048
1787892191491680620,-0.124,,,,1787892191491680620,1.4192513506
1787892191499377078,-0.11,,,,1787892191499377078,1.4200209964
1787892191507073536,-0.09,,,,1787892191507073536,1.4207906422
1787892191514769994,-0.073,,,,1787892191514769994,1.421560288
1787892191522466452,-0.066,,,,1787892191522466452,1.4223299338
1787892191530162910,-0.058,,,,1787892191530162910,1.4230995796
1787892191537859368,-0.041,,,,1787892191537859368,1.4238692254
1787892191545555826,-0.019,,,,1787892191545555826,1.4246388712
1787892191553252284,-0.009,,,,1787892191553252284,1.425408517
1787892191560948742,-0.002,,,,1787892191560948742,1.4261781628
1787892191568645200,0.004,,,,1787892191568645200,1.4269478086
1787892191576341658,0.014,,,,1787892191576341658,1.4277174544
1787892191584038116,0.019,,,,1787892191584038116,1.4284871002
1787892191591734574,0.017,,,,1787892191591734574,1.429256746
1787892191599431032,0.009,,,,1787892191599431032,1.4300263918
1787892191607127490,-0.002,,,,1787892191607127490,1.4307960376
1787892191614823948,-0.026,,,,1787892191614823948,1.4315656834
1787892191622520406,-0.066,,,,1787892191622520406,1.4323353292
1787892191630216864,-0.102,,,,1787892191630216864,1.433104975
1787892191637913322,-0.132,,,,1787892191637913322,1.4338746208
1787892191645609780,-0.158,,,,1787892191645609780,1.4346442666
1787892191653306238,-0.176,,,,1787892191653306238,1.4354139124
1787892191661002696,-0.19,,,,1787892191661002696,1.4361835582
1787892191668699154,-0.198,,,,1787892191668699154,1.436953204
1787892191676395612,-0.19,,,,1787892191676395612,1.4377228498
1787892191684092070,-0.183,,,,1787892191684092070,1.4384924956
1787892191691788528,-0.183,,,,1787892191691788528,1.4392621414
1787892191699484986,-0.183,,,,1787892191699484986,1.4400317872
1787892191707181444,-0.171,,,,1787892191707181444,1.440801433
1787892191714877902,-0.156,,,,1787892191714877902,1.4415710788
1787892191722574360,-0.151,,,,1787892191722574360,1.4423407246
1787892191730270818,-0.146,,,,1787892191730270818,1.4431103704
1787892191737967276,-0.139,,,,1787892191737967276,1.4438800162
1787892191745663734,-0.136,,,,1787892191745663734,1.444649662
1787892191753360192,-0.141,,,,1787892191753360192,1.4454193078
1787892191761056650,-0.141,,,,1787892191761056650,1.4461889536
1787892191768753108,-0.134,,,,1787892191768753108,1.4469585994
1787892191776449566,-0.129,,,,1787892191776449566,1.4477282452
1787892191784146024,-0.134,,,,1787892191784146024,1.448497891
1787892191791842482,-0.134,,,,1787892191791842482,1.4492675368
1787892191799538940,-0.132,,,,1787892191799538940,1.4500371826
1787892191807235398,-0.136,,,,1787892191807235398,1.4508068284
1787892191814931856,-0.139,,,,1787892191814931856,1.4515764742
1787892191822628314,-0.132,,,,1787892191822628314,1.45234612
1787892191830324772,-0.129,,,,1787892191830324772,1.4531157658
1787892191838021230,-0.136,,,,1787892191838021230,1.4538854116
1787892191845717688,-0.134,,,,1787892191845717688,1.4546550574
1787892191853414146,-0.124,,,,1787892191853414146,1.4554247032
1787892191861110604,-0.129,,,,1787892191861110604,1.456194349
1787892191868807062,-0.136,,,,1787892191868807062,1.4569639948
1787892191876503520,-0.134,,,,1787892191876503520,1.4577336406
1787892191884199978,-0.132,,,,1787892191884199978,1.4585032864
1787892191891896436,-0.129,,,,1787892191891896436,1.4592729322
1787892191899592894,-0.122,,,,1787892191899592894,1.460042578
1787892191907289384,-0.122,,,,1787892191907289384,1.460812227
1787892191914985842,-0.127,,,,1787892191914985842,1.4615818728
1787892191922682300,-0.129,,,,1787892191922682300,1.4623515186
1787892191930378758,-0.129,,,,1787892191930378758,1.4631211644
1787892191938075216,-0.107,,,,1787892191938075216,1.4638908102
1787892191945771674,-0.068,,,,1787892191945771674,1.464660456
1787892191953468132,-0.056,,,,1787892191953468132,1.4654301018
1787892191961164590,-0.073,,,,1787892191961164590,1.4661997476
1787892191968861048,-0.088,,,,1787892191968861048,1.4669693934
1787892191976557506,-0.092,,,,1787892191976557506,1.4677390392
1787892191984253964,-0.1,,,,1787892191984253964,1.468508685
1787892191991950422,-0.095,,,,1787892191991950422,1.4692783308
1787892191999646880,-0.085,,,,1787892191999646880,1.4700479766
1787892192007343338,-0.088,,,,1787892192007343338,1.4708176224
1787892192015039796,-0.11,,,,1787892192015039796,1.4715872682
