UNIX Timestamp,ECG,HR,RR,Marker,time,norm_time
1787895295276292732,0.126,100.0,591.0,,1787895295276292732,0.0
1787895295283989469,0.136,,573.0,,1787895295283989469,0.0007696737
1787895295291686206,0.136,,,,1787895295291686206,0.0015393474
1787895295299382943,0.136,,,,1787895295299382943,0.0023090211
1787895295307079680,0.136,,,,1787895295307079680,0.0030786948
1787895295314776417,0.128,,,,1787895295314776417,0.0038483685
1787895295322473154,0.114,,,,1787895295322473154,0.0046180422
1787895295330169891,0.111,,,,1787895295330169891,0.0053877159
1787895295337866628,0.111,,,,1787895295337866628,0.0061573896
1787895295345563365,0.102,,,,1787895295345563365,0.0069270633
1787895295353260102,0.097,,,,1787895295353260102,0.007696737
1787895295360956839,0.099,,,,1787895295360956839,0.0084664107
1787895295368653576,0.089,,,,1787895295368653576,0.0092360844
1787895295376350313,0.072,,,,1787895295376350313,0.0100057581
1787895295384047050,0.053,,,,1787895295384047050,0.0107754318
1787895295391743787,0.029,,,,1787895295391743787,0.0115451055
1787895295399440524,0.007,,,,1787895295399440524,0.0123147792
1787895295407137261,-0.009,,,,1787895295407137261,0.0130844529
1787895295414833998,-0.034,,,,1787895295414833998,0.0138541266
1787895295422530735,-0.048,,,,1787895295422530735,0.0146238003
1787895295430227472,-0.048,,,,1787895295430227472,0.015393474
1787895295437924209,-0.041,,,,1787895295437924209,0.0161631477
1787895295445620946,-0.046,,,,1787895295445620946,0.0169328214
1787895295453317683,-0.053,,,,1787895295453317683,0.0177024951
1787895295461014420,-0.048,,,,1787895295461014420,0.0184721688
1787895295468711157,-0.043,,,,1787895295468711157,0.0192418425
1787895295476407894,-0.051,,,,1787895295476407894,0.0200115162
1787895295484104631,-0.055,,,,1787895295484104631,0.0207811899
1787895295491801368,-0.055,,,,1787895295491801368,0.0215508636
1787895295499498105,-0.053,,,,1787895295499498105,0.0223205373
1787895295507194842,-0.055,,,,1787895295507194842,0.023090211
1787895295514891579,-0.058,,,,1787895295514891579,0.0238598847
1787895295522588316,-0.07,,,,1787895295522588316,0.0246295584
1787895295530285053,-0.087,,,,1787895295530285053,0.0253992321
1787895295537981790,-0.099,,,,1787895295537981790,0.0261689058
1787895295545678527,-0.104,,,,1787895295545678527,0.0269385795
1787895295553375264,-0.111,,,,1787895295553375264,0.0277082532
1787895295561072001,-0.116,,,,1787895295561072001,0.0284779269
1787895295568768738,-0.111,,,,1787895295568768738,0.0292476006
1787895295576465475,-0.087,,,,1787895295576465475,0.0300172743
1787895295584162212,-0.058,,,,1787895295584162212,0.030786948
1787895295591858949,-0.058,,,,1787895295591858949,0.0315566217
1787895295599555686,-0.082,,,,1787895295599555686,0.0323262954
1787895295607252423,-0.097,,,,1787895295607252423,0.0330959691
1787895295614949160,-0.104,,,,1787895295614949160,0.0338656428
1787895295622645897,-0.123,,,,1787895295622645897,0.0346353165
1787895295630342634,-0.133,,,,1787895295630342634,0.0354049902
1787895295638039371,-0.126,,,,1787895295638039371,0.0361746639
1787895295645736108,-0.131,,,,1787895295645736108,0.0369443376
1787895295653432845,-0.15,,,,1787895295653432845,0.0377140113
1787895295661129582,-0.199,,,,1787895295661129582,0.038483685
1787895295668826319,-0.255,,,,1787895295668826319,0.0392533587
1787895295676523056,-0.138,,,,1787895295676523056,0.0400230324
1787895295684219793,0.281,,,,1787895295684219793,0.0407927061
1787895295691916530,0.675,,,,1787895295691916530,0.0415623798
1787895295699613267,0.519,,,,1787895295699613267,0.0423320535
1787895295707310004,-0.102,,,,1787895295707310004,0.0431017272
1787895295715006741,-0.607,,,,1787895295715006741,0.0438714009
1787895295722703478,-0.6990000000000001,,,,1787895295722703478,0.0446410746
1787895295730400215,-0.541,,,,1787895295730400215,0.0454107483
1787895295738096952,-0.34,,,,1787895295738096952,0.046180422
1787895295745793689,-0.174,,,,1787895295745793689,0.0469500957
1787895295753490426,-0.082,,,,1787895295753490426,0.0477197694
1787895295761187163,-0.06,,,,1787895295761187163,0.0484894431
1787895295768883900,-0.048,,,,1787895295768883900,0.0492591168
1787895295776580637,-0.026,,,,1787895295776580637,0.0500287905
1787895295784277374,-0.014,,,,1787895295784277374,0.0507984642
1787895295791974111,0.0,,,,1787895295791974111,0.0515681379
1787895295799670848,0.017,,,,1787895295799670848,0.0523378116
1787895295807367585,0.026,,,,1787895295807367585,0.0531074853
1787895295815064322,0.041,,,,1787895295815064322,0.053877159
1787895295822761059,0.065,,,,1787895295822761059,0.0546468327
1787895295830457796,0.082,,,,1787895295830457796,0.0554165064
1787895295838154542,0.097,,,,1787895295838154542,0.056186181
1787895295845851488,0.111,,,,1787895295845851488,0.0569558756
1787895295853548434,0.121,,,,1787895295853548434,0.0577255702
1787895295861245380,0.116,,,,1787895295861245380,0.0584952648
1787895295868942326,0.099,,,,1787895295868942326,0.0592649594
1787895295876639272,0.089,,,,1787895295876639272,0.060034654
1787895295884336218,0.082,,,,1787895295884336218,0.0608043486
1787895295892033164,0.068,,,,1787895295892033164,0.0615740432
1787895295899730110,0.051,,,,1787895295899730110,0.0623437378
1787895295907427056,0.043,,,,1787895295907427056,0.0631134324
1787895295915124002,0.043,,,,1787895295915124002,0.063883127
1787895295922820948,0.034,,,,1787895295922820948,0.0646528216
1787895295930517894,0.029,,,,1787895295930517894,0.0654225162
1787895295938214840,0.024,,,,1787895295938214840,0.0661922108
1787895295945911786,-0.002,,,,1787895295945911786,0.0669619054
1787895295953608732,-0.031,,,,1787895295953608732,0.0677316
1787895295961305678,-0.048,,,,1787895295961305678,0.0685012946
1787895295969002624,-0.065,,,,1787895295969002624,0.0692709892
1787895295976699570,-0.072,,,,1787895295976699570,0.0700406838
1787895295984396516,-0.072,,,,1787895295984396516,0.0708103784
1787895295992093462,-0.075,,,,1787895295992093462,0.071580073
1787895295999790408,-0.075,,,,1787895295999790408,0.0723497676
1787895296007487354,-0.072,,,,1787895296007487354,0.0731194622
1787895296015184300,-0.068,,,,1787895296015184300,0.0738891568
1787895296022881246,-0.065,,,,1787895296022881246,0.0746588514
1787895296030578192,-0.068,,,,1787895296030578192,0.075428546
1787895296038275138,-0.07,,,,1787895296038275138,0.0761982406
1787895296045972084,-0.072,,,,1787895296045972084,0.0769679352
1787895296053669030,-0.075,,,,1787895296053669030,0.0777376298
1787895296061365976,-0.085,,,,1787895296061365976,0.0785073244
1787895296069062922,-0.089,,,,1787895296069062922,0.079277019
1787895296076759868,-0.082,,,,1787895296076759868,0.0800467136
1787895296084456814,-0.089,,,,1787895296084456814,0.0808164082
1787895296092153760,-0.109,,,,1787895296092153760,0.0815861028
1787895296099850706,-0.119,,,,1787895296099850706,0.0823557974
1787895296107547652,-0.121,,,,1787895296107547652,0.083125492
1787895296115244598,-0.123,,,,1787895296115244598,0.0838951866
1787895296122941544,-0.119,,,,1787895296122941544,0.0846648812
1787895296130638490,-0.102,,,,1787895296130638490,0.0854345758
1787895296138335436,-0.087,,,,1787895296138335436,0.0862042704
1787895296146032382,-0.085,,,,1787895296146032382,0.086973965
1787895296153729328,-0.097,,,,1787895296153729328,0.0877436596
1787895296161426274,-0.114,,,,1787895296161426274,0.0885133542
1787895296169123220,-0.126,,,,1787895296169123220,0.0892830488
1787895296176820166,-0.126,,,,1787895296176820166,0.0900527434
1787895296184517112,-0.126,,,,1787895296184517112,0.090822438
1787895296192214058,-0.121,,,,1787895296192214058,0.0915921326
1787895296199911004,-0.114,,,,1787895296199911004,0.0923618272
1787895296207607950,-0.128,,,,1787895296207607950,0.0931315218
1787895296215304896,-0.187,,,,1787895296215304896,0.0939012164
1787895296223001842,-0.247,,,,1787895296223001842,0.094670911
1787895296230698788,-0.155,,,,1787895296230698788,0.0954406056
1787895296238395734,0.245,,,,1787895296238395734,0.0962103002
1787895296246092680,0.682,,,,1787895296246092680,0.0969799948
1787895296253789626,0.602,,,,1787895296253789626,0.0977496894
1787895296261486572,-0.014,,,,1787895296261486572,0.098519384
1787895296269183518,-0.583,,,,1787895296269183518,0.0992890786
1787895296276880464,-0.719,,,,1787895296276880464,0.1000587732
1787895296284577410,-0.561,,,,1787895296284577410,0.1008284678
1787895296292274356,-0.364,,,,1787895296292274356,0.1015981624
1787895296299971302,-0.201,,,,1787895296299971302,0.102367857
1787895296307668248,-0.102,,,,1787895296307668248,0.1031375516
1787895296315365194,-0.077,,,,1787895296315365194,0.1039072462
1787895296323062140,-0.058,,,,1787895296323062140,0.1046769408
1787895296330759086,-0.024,,,,1787895296330759086,0.1054466354
1787895296338456032,-0.002,,,,1787895296338456032,0.10621633
1787895296346152978,0.004,,,,1787895296346152978,0.1069860246
1787895296353849924,0.014,,,,1787895296353849924,0.1077557192
1787895296361546870,0.019,,,,1787895296361546870,0.1085254138
1787895296369243816,0.024,,,,1787895296369243816,0.1092951084
1787895296376940762,0.043,,,,1787895296376940762,0.110064803
1787895296384637708,0.065,,,,1787895296384637708,0.1108344976
1787895296392334654,0.077,,,,1787895296392334654,0.1116041922
1787895296400031612,0.092,101.0,569.0,,1787895296400031612,0.112373888
1787895296407728140,0.106,,564.0,,1787895296407728140,0.1131435408
1787895296415424668,0.111,,,,1787895296415424668,0.1139131936
1787895296423121196,0.109,,,,1787895296423121196,0.1146828464
1787895296430817724,0.104,,,,1787895296430817724,0.1154524992
1787895296438514252,0.087,,,,1787895296438514252,0.116222152
1787895296446210780,0.063,,,,1787895296446210780,0.1169918048
1787895296453907308,0.046,,,,1787895296453907308,0.1177614576
1787895296461603836,0.041,,,,1787895296461603836,0.1185311104
1787895296469300364,0.046,,,,1787895296469300364,0.1193007632
1787895296476996892,0.046,,,,1787895296476996892,0.120070416
1787895296484693420,0.024,,,,1787895296484693420,0.1208400688
1787895296492389948,-0.004,,,,1787895296492389948,0.1216097216
1787895296500086476,-0.012,,,,1787895296500086476,0.1223793744
1787895296507783004,-0.021,,,,1787895296507783004,0.1231490272
1787895296515479532,-0.048,,,,1787895296515479532,0.12391868
1787895296523176060,-0.075,,,,1787895296523176060,0.1246883328
1787895296530872588,-0.085,,,,1787895296530872588,0.1254579856
1787895296538569116,-0.08,,,,1787895296538569116,0.1262276384
1787895296546265644,-0.082,,,,1787895296546265644,0.1269972912
1787895296553962172,-0.089,,,,1787895296553962172,0.127766944
1787895296561658700,-0.08,,,,1787895296561658700,0.1285365968
1787895296569355228,-0.068,,,,1787895296569355228,0.1293062496
1787895296577051756,-0.07,,,,1787895296577051756,0.1300759024
1787895296584748284,-0.075,,,,1787895296584748284,0.1308455552
1787895296592444812,-0.077,,,,1787895296592444812,0.131615208
1787895296600141340,-0.08,,,,1787895296600141340,0.1323848608
1787895296607837868,-0.08,,,,1787895296607837868,0.1331545136
1787895296615534396,-0.077,,,,1787895296615534396,0.1339241664
1787895296623230924,-0.087,,,,1787895296623230924,0.1346938192
1787895296630927452,-0.106,,,,1787895296630927452,0.135463472
1787895296638623980,-0.114,,,,1787895296638623980,0.1362331248
1787895296646320508,-0.114,,,,1787895296646320508,0.1370027776
1787895296654017036,-0.121,,,,1787895296654017036,0.1377724304
1787895296661713564,-0.128,,,,1787895296661713564,0.1385420832
1787895296669410092,-0.126,,,,1787895296669410092,0.139311736
1787895296677106620,-0.111,,,,1787895296677106620,0.1400813888
1787895296684803148,-0.094,,,,1787895296684803148,0.1408510416
1787895296692499676,-0.082,,,,1787895296692499676,0.1416206944
1787895296700196204,-0.089,,,,1787895296700196204,0.1423903472
1787895296707892732,-0.109,,,,1787895296707892732,0.14316
1787895296715589260,-0.109,,,,1787895296715589260,0.1439296528
1787895296723285788,-0.106,,,,1787895296723285788,0.1446993056
1787895296730982316,-0.111,,,,1787895296730982316,0.1454689584
1787895296738678844,-0.111,,,,1787895296738678844,0.1462386112
1787895296746375372,-0.104,,,,1787895296746375372,0.147008264
1787895296754071900,-0.102,,,,1787895296754071900,0.1477779168
1787895296761768428,-0.121,,,,1787895296761768428,0.1485475696
1787895296769464956,-0.184,,,,1787895296769464956,0.1493172224
1787895296777161484,-0.216,,,,1787895296777161484,0.1500868752
1787895296784858012,0.002,,,,1787895296784858012,0.150856528
1787895296792554540,0.512,,,,1787895296792554540,0.1516261808
1787895296800251068,0.8160000000000001,,,,1787895296800251068,0.1523958336
1787895296807947596,0.439,,,,1787895296807947596,0.1531654864
1787895296815644124,-0.279,,,,1787895296815644124,0.1539351392
1787895296823340652,-0.7020000000000001,,,,1787895296823340652,0.154704792
1787895296831037180,-0.663,,,,1787895296831037180,0.1554744448
1787895296838733708,-0.434,,,,1787895296838733708,0.1562440976
1787895296846430236,-0.233,,,,1787895296846430236,0.1570137504
1787895296854126764,-0.085,,,,1787895296854126764,0.1577834032
1787895296861823292,-0.026,,,,1787895296861823292,0.158553056
1787895296869519820,-0.026,,,,1787895296869519820,0.1593227088
1787895296877216348,-0.014,,,,1787895296877216348,0.1600923616
1787895296884912876,0.004,,,,1787895296884912876,0.1608620144
1787895296892609404,0.012,,,,1787895296892609404,0.1616316672
1787895296900305932,0.024,,,,1787895296900305932,0.16240132
1787895296908002460,0.041,,,,1787895296908002460,0.1631709728
1787895296915698988,0.051,,,,1787895296915698988,0.1639406256
1787895296923395516,0.055,,,,1787895296923395516,0.1647102784
1787895296931092044,0.07,,,,1787895296931092044,0.1654799312
1787895296938788572,0.092,,,,1787895296938788572,0.166249584
1787895296946485100,0.114,,,,1787895296946485100,0.1670192368
1787895296954181628,0.128,,,,1787895296954181628,0.1677888896
1787895296961878166,0.133,102.0,557.0,,1787895296961878166,0.1685585434
1787895296969575042,0.128,,,,1787895296969575042,0.169328231
1787895296977271918,0.116,,,,1787895296977271918,0.1700979186
1787895296984968794,0.097,,,,1787895296984968794,0.1708676062
1787895296992665670,0.082,,,,1787895296992665670,0.1716372938
1787895297000362546,0.075,,,,1787895297000362546,0.1724069814
1787895297008059422,0.072,,,,1787895297008059422,0.173176669
1787895297015756298,0.072,,,,1787895297015756298,0.1739463566
1787895297023453174,0.068,,,,1787895297023453174,0.1747160442
1787895297031150050,0.048,,,,1787895297031150050,0.1754857318
1787895297038846926,0.026,,,,1787895297038846926,0.1762554194
1787895297046543802,0.002,,,,1787895297046543802,0.177025107
1787895297054240678,-0.021,,,,1787895297054240678,0.1777947946
1787895297061937554,-0.043,,,,1787895297061937554,0.1785644822
1787895297069634430,-0.068,,,,1787895297069634430,0.1793341698
1787895297077331306,-0.087,,,,1787895297077331306,0.1801038574
1787895297085028182,-0.097,,,,1787895297085028182,0.180873545
1787895297092725058,-0.094,,,,1787895297092725058,0.1816432326
1787895297100421934,-0.08,,,,1787895297100421934,0.1824129202
1787895297108118810,-0.072,,,,1787895297108118810,0.1831826078
1787895297115815686,-0.075,,,,1787895297115815686,0.1839522954
1787895297123512562,-0.068,,,,1787895297123512562,0.184721983
1787895297131209438,-0.063,,,,1787895297131209438,0.1854916706
1787895297138906314,-0.065,,,,1787895297138906314,0.1862613582
1787895297146603190,-0.065,,,,1787895297146603190,0.1870310458
1787895297154300066,-0.065,,,,1787895297154300066,0.1878007334
1787895297161996942,-0.072,,,,1787895297161996942,0.188570421
1787895297169693818,-0.077,,,,1787895297169693818,0.1893401086
1787895297177390694,-0.072,,,,1787895297177390694,0.1901097962
1787895297185087570,-0.082,,,,1787895297185087570,0.1908794838
1787895297192784446,-0.102,,,,1787895297192784446,0.1916491714
1787895297200481322,-0.104,,,,1787895297200481322,0.192418859
1787895297208178198,-0.102,,,,1787895297208178198,0.1931885466
1787895297215875074,-0.106,,,,1787895297215875074,0.1939582342
1787895297223571950,-0.109,,,,1787895297223571950,0.1947279218
1787895297231268826,-0.099,,,,1787895297231268826,0.1954976094
1787895297238965702,-0.075,,,,1787895297238965702,0.196267297
1787895297246662578,-0.055,,,,1787895297246662578,0.1970369846
1787895297254359454,-0.07,,,,1787895297254359454,0.1978066722
1787895297262056330,-0.092,,,,1787895297262056330,0.1985763598
1787895297269753206,-0.097,,,,1787895297269753206,0.1993460474
1787895297277450082,-0.099,,,,1787895297277450082,0.200115735
1787895297285146958,-0.109,,,,1787895297285146958,0.2008854226
1787895297292843834,-0.102,,,,1787895297292843834,0.2016551102
1787895297300540710,-0.092,,,,1787895297300540710,0.2024247978
1787895297308237586,-0.089,,,,1787895297308237586,0.2031944854
1787895297315934462,-0.114,,,,1787895297315934462,0.203964173
1787895297323631338,-0.179,,,,1787895297323631338,0.2047338606
1787895297331328214,-0.191,,,,1787895297331328214,0.2055035482
1787895297339025090,0.082,,,,1787895297339025090,0.2062732358
1787895297346721966,0.609,,,,1787895297346721966,0.2070429234
1787895297354418842,0.842,,,,1787895297354418842,0.207812611
1787895297362115718,0.381,,,,1787895297362115718,0.2085822986
1787895297369812594,-0.359,,,,1787895297369812594,0.2093519862
1787895297377509470,-0.723,,,,1787895297377509470,0.2101216738
1787895297385206346,-0.621,,,,1787895297385206346,0.2108913614
1787895297392903222,-0.395,,,,1787895297392903222,0.211661049
1787895297400600098,-0.211,,,,1787895297400600098,0.2124307366
1787895297408296974,-0.072,,,,1787895297408296974,0.2132004242
1787895297415993850,-0.029,,,,1787895297415993850,0.2139701118
1787895297423690726,-0.043,,,,1787895297423690726,0.2147397994
1787895297431387602,-0.036,,,,1787895297431387602,0.215509487
1787895297439084478,-0.019,,,,1787895297439084478,0.2162791746
1787895297446781354,-0.021,,,,1787895297446781354,0.2170488622
1787895297454478230,-0.024,,,,1787895297454478230,0.2178185498
1787895297462175106,-0.019,,,,1787895297462175106,0.2185882374
1787895297469871982,-0.012,,,,1787895297469871982,0.219357925
1787895297477568858,0.007,,,,1787895297477568858,0.2201276126
1787895297485265734,0.019,,,,1787895297485265734,0.2208973002
1787895297492962610,0.029,,,,1787895297492962610,0.2216669878
1787895297500659486,0.048,,,,1787895297500659486,0.2224366754
1787895297508356362,0.06,,,,1787895297508356362,0.223206363
1787895297516053238,0.07,,,,1787895297516053238,0.2239760506
1787895297523750152,0.075,,,,1787895297523750152,0.224745742
1787895297531447028,0.068,,,,1787895297531447028,0.2255154296
1787895297539143904,0.053,,,,1787895297539143904,0.2262851172
1787895297546840780,0.031,,,,1787895297546840780,0.2270548048
1787895297554537656,0.017,,,,1787895297554537656,0.2278244924
1787895297562234532,0.007,,,,1787895297562234532,0.22859418
1787895297569931408,-0.004,,,,1787895297569931408,0.2293638676
1787895297577628284,-0.017,,,,1787895297577628284,0.2301335552
1787895297585325160,-0.031,,,,1787895297585325160,0.2309032428
1787895297593022036,-0.038,,,,1787895297593022036,0.2316729304
1787895297600718912,-0.046,,,,1787895297600718912,0.232442618
1787895297608415788,-0.07,,,,1787895297608415788,0.2332123056
1787895297616112664,-0.097,,,,1787895297616112664,0.2339819932
1787895297623809540,-0.114,,,,1787895297623809540,0.2347516808
1787895297631506416,-0.133,,,,1787895297631506416,0.2355213684
1787895297639203292,-0.138,,,,1787895297639203292,0.236291056
1787895297646900168,-0.131,,,,1787895297646900168,0.2370607436
1787895297654597044,-0.123,,,,1787895297654597044,0.2378304312
1787895297662293920,-0.121,,,,1787895297662293920,0.2386001188
1787895297669990796,-0.119,,,,1787895297669990796,0.2393698064
1787895297677687672,-0.111,,,,1787895297677687672,0.240139494
1787895297685384548,-0.111,,,,1787895297685384548,0.2409091816
1787895297693081424,-0.114,,,,1787895297693081424,0.2416788692
1787895297700778300,-0.109,,,,1787895297700778300,0.2424485568
1787895297708475176,-0.104,,,,1787895297708475176,0.2432182444
1787895297716172052,-0.106,,,,1787895297716172052,0.243987932
1787895297723868928,-0.116,,,,1787895297723868928,0.2447576196
1787895297731565804,-0.121,,,,1787895297731565804,0.2455273072
1787895297739262680,-0.123,,,,1787895297739262680,0.2462969948
1787895297746959556,-0.123,,,,1787895297746959556,0.2470666824
1787895297754656432,-0.121,,,,1787895297754656432,0.24783637
1787895297762353308,-0.128,,,,1787895297762353308,0.2486060576
1787895297770050184,-0.14,,,,1787895297770050184,0.2493757452
1787895297777747060,-0.155,,,,1787895297777747060,0.2501454328
1787895297785443936,-0.165,,,,1787895297785443936,0.2509151204
1787895297793140812,-0.15,,,,1787895297793140812,0.251684808
1787895297800837688,-0.123,,,,1787895297800837688,0.2524544956
1787895297808534564,-0.109,,,,1787895297808534564,0.2532241832
1787895297816231440,-0.119,,,,1787895297816231440,0.2539938708
1787895297823928316,-0.133,,,,1787895297823928316,0.2547635584
1787895297831625192,-0.131,,,,1787895297831625192,0.255533246
1787895297839322068,-0.123,,,,1787895297839322068,0.2563029336
1787895297847018944,-0.116,,,,1787895297847018944,0.2570726212
1787895297854715820,-0.102,,,,1787895297854715820,0.2578423088
1787895297862412696,-0.087,,,,1787895297862412696,0.2586119964
1787895297870109572,-0.094,,,,1787895297870109572,0.259381684
1787895297877806448,-0.121,,,,1787895297877806448,0.2601513716
1787895297885503324,-0.155,,,,1787895297885503324,0.2609210592
1787895297893200200,-0.097,,,,1787895297893200200,0.2616907468
1787895297900897076,0.206,,,,1787895297900897076,0.2624604344
1787895297908593952,0.663,,,,1787895297908593952,0.263230122
1787895297916290828,0.772,,,,1787895297916290828,0.2639998096
1787895297923987704,0.257,,,,1787895297923987704,0.2647694972
1787895297931684580,-0.432,,,,1787895297931684580,0.2655391848
1787895297939381456,-0.726,,,,1787895297939381456,0.2663088724
1787895297947078332,-0.609,,,,1787895297947078332,0.26707856
1787895297954775208,-0.393,,,,1787895297954775208,0.2678482476
1787895297962472084,-0.211,,,,1787895297962472084,0.2686179352
1787895297970168960,-0.072,,,,1787895297970168960,0.2693876228
1787895297977865836,-0.026,,,,1787895297977865836,0.2701573104
1787895297985562712,-0.034,,,,1787895297985562712,0.270926998
1787895297993259588,-0.021,,,,1787895297993259588,0.2716966856
1787895298000956464,-0.002,,,,1787895298000956464,0.2724663732
1787895298008653340,0.009,,,,1787895298008653340,0.2732360608
1787895298016350216,0.017,,,,1787895298016350216,0.2740057484
1787895298024047092,0.024,,,,1787895298024047092,0.274775436
1787895298031743968,0.041,,,,1787895298031743968,0.2755451236
1787895298039440844,0.06,,,,1787895298039440844,0.2763148112
1787895298047137720,0.075,,,,1787895298047137720,0.2770844988
1787895298054834596,0.089,,,,1787895298054834596,0.2778541864
1787895298062531472,0.102,,,,1787895298062531472,0.278623874
1787895298070228348,0.102,,,,1787895298070228348,0.2793935616
1787895298077925224,0.106,,,,1787895298077925224,0.2801632492
1787895298085622136,0.116,104.0,555.0,,1787895298085622136,0.2809329404
1787895298093319012,0.111,,551.0,,1787895298093319012,0.281702628
1787895298101015888,0.082,,,,1787895298101015888,0.2824723156
1787895298108712764,0.068,,,,1787895298108712764,0.2832420032
1787895298116409640,0.072,,,,1787895298116409640,0.2840116908
1787895298124106516,0.063,,,,1787895298124106516,0.2847813784
1787895298131803392,0.043,,,,1787895298131803392,0.285551066
1787895298139500268,0.029,,,,1787895298139500268,0.2863207536
1787895298147197144,0.012,,,,1787895298147197144,0.2870904412
1787895298154894020,-0.012,,,,1787895298154894020,0.2878601288
1787895298162590896,-0.046,,,,1787895298162590896,0.2886298164
1787895298170287772,-0.082,,,,1787895298170287772,0.289399504
1787895298177984648,-0.089,,,,1787895298177984648,0.2901691916
1787895298185681524,-0.082,,,,1787895298185681524,0.2909388792
1787895298193378400,-0.106,,,,1787895298193378400,0.2917085668
1787895298201075276,-0.128,,,,1787895298201075276,0.2924782544
1787895298208772152,-0.126,,,,1787895298208772152,0.293247942
1787895298216469028,-0.123,,,,1787895298216469028,0.2940176296
1787895298224165904,-0.104,,,,1787895298224165904,0.2947873172
1787895298231862780,-0.07,,,,1787895298231862780,0.2955570048
1787895298239559656,-0.058,,,,1787895298239559656,0.2963266924
1787895298247256532,-0.07,,,,1787895298247256532,0.29709638
1787895298254953408,-0.068,,,,1787895298254953408,0.2978660676
1787895298262650284,-0.068,,,,1787895298262650284,0.2986357552
1787895298270347160,-0.099,,,,1787895298270347160,0.2994054428
1787895298278044036,-0.111,,,,1787895298278044036,0.3001751304
1787895298285740912,-0.092,,,,1787895298285740912,0.300944818
1787895298293437788,-0.077,,,,1787895298293437788,0.3017145056
1787895298301134664,-0.082,,,,1787895298301134664,0.3024841932
1787895298308831540,-0.087,,,,1787895298308831540,0.3032538808
1787895298316528416,-0.087,,,,1787895298316528416,0.3040235684
1787895298324225292,-0.092,,,,1787895298324225292,0.304793256
1787895298331922168,-0.102,,,,1787895298331922168,0.3055629436
1787895298339619044,-0.111,,,,1787895298339619044,0.3063326312
1787895298347315920,-0.121,,,,1787895298347315920,0.3071023188
1787895298355012796,-0.116,,,,1787895298355012796,0.3078720064
1787895298362709672,-0.087,,,,1787895298362709672,0.308641694
1787895298370406548,-0.048,,,,1787895298370406548,0.3094113816
1787895298378103424,-0.036,,,,1787895298378103424,0.3101810692
1787895298385800300,-0.072,,,,1787895298385800300,0.3109507568
1787895298393497176,-0.099,,,,1787895298393497176,0.3117204444
1787895298401194052,-0.077,,,,1787895298401194052,0.312490132
1787895298408890928,-0.063,,,,1787895298408890928,0.3132598196
1787895298416587804,-0.08,,,,1787895298416587804,0.3140295072
1787895298424284680,-0.102,,,,1787895298424284680,0.3147991948
1787895298431981556,-0.109,,,,1787895298431981556,0.3155688824
1787895298439678432,-0.123,,,,1787895298439678432,0.31633857
1787895298447375308,-0.17,,,,1787895298447375308,0.3171082576
1787895298455072184,-0.182,,,,1787895298455072184,0.3178779452
1787895298462769060,0.004,,,,1787895298462769060,0.3186476328
1787895298470465936,0.442,,,,1787895298470465936,0.3194173204
1787895298478162812,0.777,,,,1787895298478162812,0.320187008
1787895298485859688,0.558,,,,1787895298485859688,0.3209566956
1787895298493556564,-0.116,,,,1787895298493556564,0.3217263832
1787895298501253440,-0.651,,,,1787895298501253440,0.3224960708
1787895298508950316,-0.704,,,,1787895298508950316,0.3232657584
1787895298516647192,-0.497,,,,1787895298516647192,0.324035446
1787895298524344068,-0.298,,,,1787895298524344068,0.3248051336
1787895298532040944,-0.133,,,,1787895298532040944,0.3255748212
1787895298539737820,-0.034,,,,1787895298539737820,0.3263445088
1787895298547434696,-0.029,,,,1787895298547434696,0.3271141964
1787895298555131572,-0.036,,,,1787895298555131572,0.327883884
1787895298562828448,-0.019,,,,1787895298562828448,0.3286535716
1787895298570525324,0.0,,,,1787895298570525324,0.3294232592
1787895298578222200,0.026,,,,1787895298578222200,0.3301929468
1787895298585919076,0.038,,,,1787895298585919076,0.3309626344
1787895298593615952,0.048,,,,1787895298593615952,0.331732322
1787895298601312828,0.072,,,,1787895298601312828,0.3325020096
1787895298609009704,0.092,,,,1787895298609009704,0.3332716972
1787895298616706580,0.087,,,,1787895298616706580,0.3340413848
1787895298624403456,0.07,,,,1787895298624403456,0.3348110724
1787895298632100332,0.072,,,,1787895298632100332,0.33558076
1787895298639797208,0.097,,,,1787895298639797208,0.3363504476
1787895298647494120,0.104,,,,1787895298647494120,0.3371201388
1787895298655190996,0.097,,,,1787895298655190996,0.3378898264
1787895298662887872,0.087,,,,1787895298662887872,0.338659514
1787895298670584748,0.068,,,,1787895298670584748,0.3394292016
1787895298678281624,0.051,,,,1787895298678281624,0.3401988892
1787895298685978500,0.046,,,,1787895298685978500,0.3409685768
1787895298693675376,0.043,,,,1787895298693675376,0.3417382644
1787895298701372252,0.029,,,,1787895298701372252,0.342507952
1787895298709069128,0.012,,,,1787895298709069128,0.3432776396
1787895298716766004,-0.002,,,,1787895298716766004,0.3440473272
1787895298724462880,-0.024,,,,1787895298724462880,0.3448170148
1787895298732159756,-0.051,,,,1787895298732159756,0.3455867024
1787895298739856632,-0.077,,,,1787895298739856632,0.34635639
1787895298747553508,-0.106,,,,1787895298747553508,0.3471260776
1787895298755250384,-0.119,,,,1787895298755250384,0.3478957652
1787895298762947260,-0.121,,,,1787895298762947260,0.3486654528
1787895298770644136,-0.121,,,,1787895298770644136,0.3494351404
1787895298778341012,-0.111,,,,1787895298778341012,0.350204828
1787895298786037888,-0.099,,,,1787895298786037888,0.3509745156
1787895298793734764,-0.097,,,,1787895298793734764,0.3517442032
1787895298801431640,-0.097,,,,1787895298801431640,0.3525138908
1787895298809128516,-0.082,,,,1787895298809128516,0.3532835784
1787895298816825392,-0.06,,,,1787895298816825392,0.354053266
1787895298824522268,-0.06,,,,1787895298824522268,0.3548229536
1787895298832219144,-0.068,,,,1787895298832219144,0.3555926412
1787895298839916020,-0.063,,,,1787895298839916020,0.3563623288
1787895298847612896,-0.07,,,,1787895298847612896,0.3571320164
1787895298855309772,-0.08,,,,1787895298855309772,0.357901704
1787895298863006648,-0.075,,,,1787895298863006648,0.3586713916
1787895298870703524,-0.065,,,,1787895298870703524,0.3594410792
1787895298878400400,-0.068,,,,1787895298878400400,0.3602107668
1787895298886097276,-0.082,,,,1787895298886097276,0.3609804544
1787895298893794152,-0.089,,,,1787895298893794152,0.361750142
1787895298901491028,-0.087,,,,1787895298901491028,0.3625198296
1787895298909187904,-0.089,,,,1787895298909187904,0.3632895172
1787895298916884780,-0.102,,,,1787895298916884780,0.3640592048
1787895298924581656,-0.114,,,,1787895298924581656,0.3648288924
1787895298932278532,-0.119,,,,1787895298932278532,0.36559858
1787895298939975408,-0.116,,,,1787895298939975408,0.3663682676
1787895298947672284,-0.104,,,,1787895298947672284,0.3671379552
1787895298955369160,-0.082,,,,1787895298955369160,0.3679076428
1787895298963066036,-0.063,,,,1787895298963066036,0.3686773304
1787895298970762912,-0.063,,,,1787895298970762912,0.369447018
1787895298978459788,-0.082,,,,1787895298978459788,0.3702167056
1787895298986156664,-0.097,,,,1787895298986156664,0.3709863932
1787895298993853540,-0.097,,,,1787895298993853540,0.3717560808
1787895299001550416,-0.097,,,,1787895299001550416,0.3725257684
1787895299009247292,-0.094,,,,1787895299009247292,0.373295456
1787895299016944168,-0.085,,,,1787895299016944168,0.3740651436
1787895299024641044,-0.072,,,,1787895299024641044,0.3748348312
1787895299032337920,-0.07,,,,1787895299032337920,0.3756045188
1787895299040034796,-0.094,,,,1787895299040034796,0.3763742064
1787895299047731672,-0.109,,,,1787895299047731672,0.377143894
1787895299055428548,0.07,,,,1787895299055428548,0.3779135816
1787895299063125424,0.529,,,,1787895299063125424,0.3786832692
1787895299070822300,0.874,,,,1787895299070822300,0.3794529568
1787895299078519176,0.58,,,,1787895299078519176,0.3802226444
1787895299086216052,-0.17,,,,1787895299086216052,0.380992332
1787895299093912928,-0.675,,,,1787895299093912928,0.3817620196
1787895299101609804,-0.648,,,,1787895299101609804,0.3825317072
1787895299109306680,-0.405,,,,1787895299109306680,0.3833013948
1787895299117003556,-0.211,,,,1787895299117003556,0.3840710824
1787895299124700432,-0.068,,,,1787895299124700432,0.38484077
1787895299132397308,0.009,,,,1787895299132397308,0.3856104576
1787895299140094184,0.012,,,,1787895299140094184,0.3863801452
1787895299147791060,0.026,,,,1787895299147791060,0.3871498328
1787895299155487936,0.058,,,,1787895299155487936,0.3879195204
1787895299163184812,0.055,,,,1787895299163184812,0.388689208
1787895299170881688,0.051,,,,1787895299170881688,0.3894588956
1787895299178578564,0.077,,,,1787895299178578564,0.3902285832
1787895299186275440,0.102,,,,1787895299186275440,0.3909982708
1787895299193972316,0.106,,,,1787895299193972316,0.3917679584
1787895299201669192,0.109,,,,1787895299201669192,0.392537646
1787895299209366104,0.121,106.0,553.0,,1787895299209366104,0.3933073372
1787895299217062980,0.145,,561.0,,1787895299217062980,0.3940770248
1787895299224759856,0.17,,,,1787895299224759856,0.3948467124
1787895299232456732,0.179,,,,1787895299232456732,0.3956164
1787895299240153608,0.194,,,,1787895299240153608,0.3963860876
1787895299247850484,0.213,,,,1787895299247850484,0.3971557752
1787895299255547360,0.218,,,,1787895299255547360,0.3979254628
1787895299263244236,0.196,,,,1787895299263244236,0.3986951504
1787895299270941112,0.17,,,,1787895299270941112,0.399464838
1787895299278637988,0.16,,,,1787895299278637988,0.4002345256
1787895299286334864,0.148,,,,1787895299286334864,0.4010042132
1787895299294031740,0.136,,,,1787895299294031740,0.4017739008
1787895299301728616,0.131,,,,1787895299301728616,0.4025435884
1787895299309425492,0.111,,,,1787895299309425492,0.403313276
1787895299317122368,0.07,,,,1787895299317122368,0.4040829636
1787895299324819244,0.034,,,,1787895299324819244,0.4048526512
1787895299332516120,0.012,,,,1787895299332516120,0.4056223388
1787895299340212996,-0.009,,,,1787895299340212996,0.4063920264
1787895299347909872,-0.031,,,,1787895299347909872,0.407161714
1787895299355606748,-0.043,,,,1787895299355606748,0.4079314016
1787895299363303624,-0.053,,,,1787895299363303624,0.4087010892
1787895299371000500,-0.043,,,,1787895299371000500,0.4094707768
1787895299378697376,-0.021,,,,1787895299378697376,0.4102404644
1787895299386394252,-0.014,,,,1787895299386394252,0.411010152
1787895299394091128,-0.012,,,,1787895299394091128,0.4117798396
1787895299401788004,-0.007,,,,1787895299401788004,0.4125495272
1787895299409484880,-0.012,,,,1787895299409484880,0.4133192148
1787895299417181756,-0.012,,,,1787895299417181756,0.4140889024
1787895299424878632,-0.004,,,,1787895299424878632,0.41485859
1787895299432575508,0.002,,,,1787895299432575508,0.4156282776
1787895299440272384,0.002,,,,1787895299440272384,0.4163979652
1787895299447969260,0.002,,,,1787895299447969260,0.4171676528
1787895299455666136,-0.002,,,,1787895299455666136,0.4179373404
1787895299463363012,-0.009,,,,1787895299463363012,0.418707028
1787895299471059888,-0.019,,,,1787895299471059888,0.4194767156
1787895299478756764,-0.029,,,,1787895299478756764,0.4202464032
1787895299486453640,-0.036,,,,1787895299486453640,0.4210160908
1787895299494150516,-0.031,,,,1787895299494150516,0.4217857784
1787895299501847392,-0.031,,,,1787895299501847392,0.422555466
1787895299509544268,-0.043,,,,1787895299509544268,0.4233251536
1787895299517241144,-0.041,,,,1787895299517241144,0.4240948412
1787895299524938020,-0.034,,,,1787895299524938020,0.4248645288
1787895299532634896,-0.043,,,,1787895299532634896,0.4256342164
1787895299540331772,-0.055,,,,1787895299540331772,0.426403904
1787895299548028648,-0.063,,,,1787895299548028648,0.4271735916
1787895299555725524,-0.063,,,,1787895299555725524,0.4279432792
1787895299563422400,-0.058,,,,1787895299563422400,0.4287129668
1787895299571119276,-0.041,,,,1787895299571119276,0.4294826544
1787895299578816152,-0.017,,,,1787895299578816152,0.430252342
1787895299586513028,-0.009,,,,1787895299586513028,0.4310220296
1787895299594209904,-0.029,,,,1787895299594209904,0.4317917172
1787895299601906780,-0.051,,,,1787895299601906780,0.4325614048
1787895299609603656,-0.051,,,,1787895299609603656,0.4333310924
1787895299617300532,-0.051,,,,1787895299617300532,0.43410078
1787895299624997408,-0.063,,,,1787895299624997408,0.4348704676
1787895299632694284,-0.058,,,,1787895299632694284,0.4356401552
1787895299640391160,-0.048,,,,1787895299640391160,0.4364098428
1787895299648088036,-0.053,,,,1787895299648088036,0.4371795304
1787895299655784912,-0.065,,,,1787895299655784912,0.437949218
1787895299663481788,-0.097,,,,1787895299663481788,0.4387189056
1787895299671178664,-0.029,,,,1787895299671178664,0.4394885932
1787895299678875540,0.349,,,,1787895299678875540,0.4402582808
1787895299686572416,0.864,,,,1787895299686572416,0.4410279684
1787895299694269292,0.879,,,,1787895299694269292,0.441797656
1787895299701966168,0.191,,,,1787895299701966168,0.4425673436
1787895299709663044,-0.541,,,,1787895299709663044,0.4433370312
1787895299717359920,-0.731,,,,1787895299717359920,0.4441067188
1787895299725056796,-0.536,,,,1787895299725056796,0.4448764064
1787895299732753672,-0.323,,,,1787895299732753672,0.445646094
1787895299740450548,-0.17,,,,1787895299740450548,0.4464157816
1787895299748147424,-0.065,,,,1787895299748147424,0.4471854692
1787895299755844300,-0.034,,,,1787895299755844300,0.4479551568
1787895299763541176,-0.026,,,,1787895299763541176,0.4487248444
1787895299771238088,-0.002,,,,1787895299771238088,0.4494945356
1787895299778934964,0.009,,,,1787895299778934964,0.4502642232
1787895299786631840,0.004,,,,1787895299786631840,0.4510339108
1787895299794328716,0.021,,,,1787895299794328716,0.4518035984
1787895299802025592,0.048,,,,1787895299802025592,0.452573286
1787895299809722468,0.06,,,,1787895299809722468,0.4533429736
1787895299817419344,0.08,,,,1787895299817419344,0.4541126612
1787895299825116220,0.104,,,,1787895299825116220,0.4548823488
1787895299832813096,0.126,,,,1787895299832813096,0.4556520364
1787895299840509972,0.153,,,,1787895299840509972,0.456421724
1787895299848206848,0.172,,,,1787895299848206848,0.4571914116
1787895299855903724,0.174,,,,1787895299855903724,0.4579610992
1787895299863600600,0.17,,,,1787895299863600600,0.4587307868
1787895299871297476,0.179,,,,1787895299871297476,0.4595004744
1787895299878994352,0.179,,,,1787895299878994352,0.460270162
1787895299886691228,0.157,,,,1787895299886691228,0.4610398496
1787895299894388104,0.133,,,,1787895299894388104,0.4618095372
1787895299902084980,0.111,,,,1787895299902084980,0.4625792248
1787895299909781856,0.085,,,,1787895299909781856,0.4633489124
1787895299917478732,0.055,,,,1787895299917478732,0.4641186
1787895299925175608,0.036,,,,1787895299925175608,0.4648882876
1787895299932872484,0.014,,,,1787895299932872484,0.4656579752
1787895299940569360,-0.019,,,,1787895299940569360,0.4664276628
1787895299948266236,-0.055,,,,1787895299948266236,0.4671973504
1787895299955963112,-0.077,,,,1787895299955963112,0.467967038
1787895299963659988,-0.097,,,,1787895299963659988,0.4687367256
1787895299971356864,-0.114,,,,1787895299971356864,0.4695064132
1787895299979053740,-0.126,,,,1787895299979053740,0.4702761008
1787895299986750616,-0.128,,,,1787895299986750616,0.4710457884
1787895299994447492,-0.126,,,,1787895299994447492,0.471815476
1787895300002144368,-0.123,,,,1787895300002144368,0.4725851636
1787895300009841244,-0.116,,,,1787895300009841244,0.4733548512
1787895300017538120,-0.097,,,,1787895300017538120,0.4741245388
1787895300025234996,-0.085,,,,1787895300025234996,0.4748942264
1787895300032931872,-0.075,,,,1787895300032931872,0.475663914
1787895300040628748,-0.065,,,,1787895300040628748,0.4764336016
1787895300048325624,-0.068,,,,1787895300048325624,0.4772032892
1787895300056022500,-0.07,,,,1787895300056022500,0.4779729768
1787895300063719376,-0.065,,,,1787895300063719376,0.4787426644
1787895300071416252,-0.065,,,,1787895300071416252,0.479512352
1787895300079113128,-0.07,,,,1787895300079113128,0.4802820396
1787895300086810004,-0.075,,,,1787895300086810004,0.4810517272
1787895300094506880,-0.072,,,,1787895300094506880,0.4818214148
1787895300102203756,-0.077,,,,1787895300102203756,0.4825911024
1787895300109900632,-0.087,,,,1787895300109900632,0.48336079
1787895300117597508,-0.104,,,,1787895300117597508,0.4841304776
1787895300125294384,-0.114,,,,1787895300125294384,0.4849001652
1787895300132991260,-0.116,,,,1787895300132991260,0.4856698528
1787895300140688136,-0.121,,,,1787895300140688136,0.4864395404
1787895300148385012,-0.128,,,,1787895300148385012,0.487209228
1787895300156081888,-0.133,,,,1787895300156081888,0.4879789156
1787895300163778764,-0.136,,,,1787895300163778764,0.4887486032
1787895300171475640,-0.128,,,,1787895300171475640,0.4895182908
1787895300179172516,-0.123,,,,1787895300179172516,0.4902879784
1787895300186869392,-0.131,,,,1787895300186869392,0.491057666
1787895300194566268,-0.138,,,,1787895300194566268,0.4918273536
1787895300202263144,-0.14,,,,1787895300202263144,0.4925970412
1787895300209960020,-0.136,,,,1787895300209960020,0.4933667288
1787895300217656896,-0.116,,,,1787895300217656896,0.4941364164
1787895300225353772,-0.094,,,,1787895300225353772,0.494906104
1787895300233050648,-0.082,,,,1787895300233050648,0.4956757916
1787895300240747524,-0.089,,,,1787895300240747524,0.4964454792
1787895300248444400,-0.109,,,,1787895300248444400,0.4972151668
1787895300256141276,-0.109,,,,1787895300256141276,0.4979848544
1787895300263838152,-0.097,,,,1787895300263838152,0.498754542
1787895300271535028,-0.099,,,,1787895300271535028,0.4995242296
1787895300279231904,-0.102,,,,1787895300279231904,0.5002939172
1787895300286928780,-0.097,,,,1787895300286928780,0.5010636048
1787895300294625656,-0.102,,,,1787895300294625656,0.5018332924
1787895300302322532,-0.119,,,,1787895300302322532,0.50260298
1787895300310019408,-0.15,,,,1787895300310019408,0.5033726676
1787895300317716284,-0.085,,,,1787895300317716284,0.5041423552
1787895300325413160,0.267,,,,1787895300325413160,0.5049120428
1787895300333110072,0.76,106.0,565.0,,1787895300333110072,0.505681734
1787895300340806948,0.808,,,,1787895300340806948,0.5064514216
1787895300348503824,0.162,,,,1787895300348503824,0.5072211092
1787895300356200700,-0.5750000000000001,,,,1787895300356200700,0.5079907968
1787895300363897576,-0.777,,,,1787895300363897576,0.5087604844
1787895300371594452,-0.561,,,,1787895300371594452,0.509530172
1787895300379291328,-0.33,,,,1787895300379291328,0.5102998596
1787895300386988204,-0.179,,,,1787895300386988204,0.5110695472
1787895300394685080,-0.072,,,,1787895300394685080,0.5118392348
1787895300402381956,-0.058,,,,1787895300402381956,0.5126089224
1787895300410078832,-0.068,,,,1787895300410078832,0.51337861
1787895300417775708,-0.046,,,,1787895300417775708,0.5141482976
1787895300425472584,-0.038,,,,1787895300425472584,0.5149179852
1787895300433169460,-0.055,,,,1787895300433169460,0.5156876728
1787895300440866336,-0.048,,,,1787895300440866336,0.5164573604
1787895300448563212,-0.007,,,,1787895300448563212,0.517227048
1787895300456260088,0.019,,,,1787895300456260088,0.5179967356
1787895300463956964,0.007,,,,1787895300463956964,0.5187664232
1787895300471653840,0.004,,,,1787895300471653840,0.5195361108
1787895300479350716,0.019,,,,1787895300479350716,0.5203057984
1787895300487047592,0.026,,,,1787895300487047592,0.521075486
1787895300494744468,0.034,,,,1787895300494744468,0.5218451736
1787895300502441344,0.058,,,,1787895300502441344,0.5226148612
1787895300510138220,0.08,,,,1787895300510138220,0.5233845488
1787895300517835096,0.072,,,,1787895300517835096,0.5241542364
1787895300525531972,0.043,,,,1787895300525531972,0.524923924
1787895300533228848,0.024,,,,1787895300533228848,0.5256936116
1787895300540925724,0.014,,,,1787895300540925724,0.5264632992
1787895300548622600,-0.004,,,,1787895300548622600,0.5272329868
1787895300556319476,-0.036,,,,1787895300556319476,0.5280026744
1787895300564016352,-0.06,,,,1787895300564016352,0.528772362
1787895300571713228,-0.082,,,,1787895300571713228,0.5295420496
1787895300579410104,-0.114,,,,1787895300579410104,0.5303117372
1787895300587106980,-0.145,,,,1787895300587106980,0.5310814248
1787895300594803856,-0.153,,,,1787895300594803856,0.5318511124
1787895300602500732,-0.157,,,,1787895300602500732,0.5326208
1787895300610197608,-0.184,,,,1787895300610197608,0.5333904876
1787895300617894484,-0.206,,,,1787895300617894484,0.5341601752
1787895300625591360,-0.211,,,,1787895300625591360,0.5349298628
1787895300633288236,-0.208,,,,1787895300633288236,0.5356995504
1787895300640985112,-0.211,,,,1787895300640985112,0.536469238
1787895300648681988,-0.208,,,,1787895300648681988,0.5372389256
1787895300656378864,-0.204,,,,1787895300656378864,0.5380086132
1787895300664075740,-0.201,,,,1787895300664075740,0.5387783008
1787895300671772616,-0.184,,,,1787895300671772616,0.5395479884
1787895300679469492,-0.165,,,,1787895300679469492,0.540317676
1787895300687166368,-0.15,,,,1787895300687166368,0.5410873636
1787895300694863244,-0.145,,,,1787895300694863244,0.5418570512
1787895300702560120,-0.148,,,,1787895300702560120,0.5426267388
1787895300710256996,-0.138,,,,1787895300710256996,0.5433964264
1787895300717953872,-0.123,,,,1787895300717953872,0.544166114
1787895300725650748,-0.128,,,,1787895300725650748,0.5449358016
1787895300733347624,-0.138,,,,1787895300733347624,0.5457054892
1787895300741044500,-0.145,,,,1787895300741044500,0.5464751768
1787895300748741376,-0.162,,,,1787895300748741376,0.5472448644
1787895300756438252,-0.162,,,,1787895300756438252,0.548014552
1787895300764135128,-0.14,,,,1787895300764135128,0.5487842396
1787895300771832004,-0.128,,,,1787895300771832004,0.5495539272
1787895300779528880,-0.131,,,,1787895300779528880,0.5503236148
1787895300787225756,-0.136,,,,1787895300787225756,0.5510933024
1787895300794922632,-0.136,,,,1787895300794922632,0.55186299
1787895300802619508,-0.14,,,,1787895300802619508,0.5526326776
1787895300810316384,-0.138,,,,1787895300810316384,0.5534023652
1787895300818013260,-0.131,,,,1787895300818013260,0.5541720528
1787895300825710136,-0.136,,,,1787895300825710136,0.5549417404
1787895300833407012,-0.138,,,,1787895300833407012,0.555711428
1787895300841103888,-0.133,,,,1787895300841103888,0.5564811156
1787895300848800764,-0.133,,,,1787895300848800764,0.5572508032
1787895300856497640,-0.14,,,,1787895300856497640,0.5580204908
1787895300864194516,-0.136,,,,1787895300864194516,0.5587901784
1787895300871891392,-0.121,,,,1787895300871891392,0.559559866
1787895300879588268,-0.111,,,,1787895300879588268,0.5603295536
1787895300887285144,-0.104,,,,1787895300887285144,0.5610992412
1787895300894982058,-0.092,,,,1787895300894982058,0.5618689326
1787895300902678934,-0.072,,,,1787895300902678934,0.5626386202
1787895300910375810,-0.058,,,,1787895300910375810,0.5634083078
1787895300918072686,-0.072,,,,1787895300918072686,0.5641779954
1787895300925769562,-0.097,,,,1787895300925769562,0.564947683
1787895300933466438,-0.07,,,,1787895300933466438,0.5657173706
1787895300941163314,-0.048,,,,1787895300941163314,0.5664870582
1787895300948860190,-0.07,,,,1787895300948860190,0.5672567458
1787895300956557066,-0.072,,,,1787895300956557066,0.5680264334
1787895300964253942,-0.051,,,,1787895300964253942,0.568796121
1787895300971950818,-0.053,,,,1787895300971950818,0.5695658086
1787895300979647694,-0.094,,,,1787895300979647694,0.5703354962
1787895300987344570,-0.114,,,,1787895300987344570,0.5711051838
1787895300995041446,0.065,,,,1787895300995041446,0.5718748714
1787895301002738322,0.522,,,,1787895301002738322,0.572644559
1787895301010435198,0.891,,,,1787895301010435198,0.5734142466
1787895301018132074,0.646,,,,1787895301018132074,0.5741839342
1787895301025828950,-0.089,,,,1787895301025828950,0.5749536218
1787895301033525826,-0.609,,,,1787895301033525826,0.5757233094
1787895301041222702,-0.612,,,,1787895301041222702,0.576492997
1787895301048919578,-0.41,,,,1787895301048919578,0.5772626846
1787895301056616454,-0.242,,,,1787895301056616454,0.5780323722
1787895301064313330,-0.094,,,,1787895301064313330,0.5788020598
1787895301072010206,-0.002,,,,1787895301072010206,0.5795717474
1787895301079707082,0.0,,,,1787895301079707082,0.580341435
1787895301087403958,-0.002,,,,1787895301087403958,0.5811111226
1787895301095100834,0.021,,,,1787895301095100834,0.5818808102
1787895301102797710,0.034,,,,1787895301102797710,0.5826504978
1787895301110494586,0.026,,,,1787895301110494586,0.5834201854
1787895301118191462,0.021,,,,1787895301118191462,0.584189873
1787895301125888338,0.046,,,,1787895301125888338,0.5849595606
1787895301133585214,0.094,,,,1787895301133585214,0.5857292482
1787895301141282090,0.109,,,,1787895301141282090,0.5864989358
1787895301148978966,0.104,,,,1787895301148978966,0.5872686234
1787895301156675842,0.133,,,,1787895301156675842,0.588038311
1787895301164372718,0.162,,,,1787895301164372718,0.5888079986
1787895301172069594,0.172,,,,1787895301172069594,0.5895776862
1787895301179766470,0.179,,,,1787895301179766470,0.5903473738
1787895301187463346,0.184,,,,1787895301187463346,0.5911170614
1787895301195160222,0.177,,,,1787895301195160222,0.591886749
1787895301202857098,0.165,,,,1787895301202857098,0.5926564366
1787895301210553974,0.148,,,,1787895301210553974,0.5934261242
1787895301218250850,0.131,,,,1787895301218250850,0.5941958118
1787895301225947726,0.111,,,,1787895301225947726,0.5949654994
1787895301233644602,0.092,,,,1787895301233644602,0.595735187
1787895301241341478,0.07,,,,1787895301241341478,0.5965048746
1787895301249038354,0.048,,,,1787895301249038354,0.5972745622
1787895301256735230,0.024,,,,1787895301256735230,0.5980442498
1787895301264432106,-0.009,,,,1787895301264432106,0.5988139374
1787895301272128982,-0.043,,,,1787895301272128982,0.599583625
1787895301279825858,-0.07,,,,1787895301279825858,0.6003533126
1787895301287522734,-0.092,,,,1787895301287522734,0.6011230002
1787895301295219610,-0.104,,,,1787895301295219610,0.6018926878
1787895301302916486,-0.114,,,,1787895301302916486,0.6026623754
1787895301310613362,-0.114,,,,1787895301310613362,0.603432063
1787895301318310238,-0.106,,,,1787895301318310238,0.6042017506
1787895301326007114,-0.106,,,,1787895301326007114,0.6049714382
1787895301333703990,-0.109,,,,1787895301333703990,0.6057411258
1787895301341400866,-0.106,,,,1787895301341400866,0.6065108134
1787895301349097742,-0.097,,,,1787895301349097742,0.607280501
1787895301356794618,-0.092,,,,1787895301356794618,0.6080501886
1787895301364491494,-0.087,,,,1787895301364491494,0.6088198762
1787895301372188370,-0.075,,,,1787895301372188370,0.6095895638
1787895301379885246,-0.07,,,,1787895301379885246,0.6103592514
1787895301387582122,-0.065,,,,1787895301387582122,0.611128939
1787895301395278998,-0.063,,,,1787895301395278998,0.6118986266
1787895301402975874,-0.068,,,,1787895301402975874,0.6126683142
1787895301410672750,-0.072,,,,1787895301410672750,0.6134380018
1787895301418369626,-0.07,,,,1787895301418369626,0.6142076894
1787895301426066502,-0.08,,,,1787895301426066502,0.614977377
1787895301433763378,-0.089,,,,1787895301433763378,0.6157470646
1787895301441460254,-0.097,,,,1787895301441460254,0.6165167522
1787895301449157130,-0.097,,,,1787895301449157130,0.6172864398
1787895301456854042,-0.097,106.0,592.0,,1787895301456854042,0.618056131
1787895301464550918,-0.102,,619.0,,1787895301464550918,0.6188258186
1787895301472247794,-0.104,,,,1787895301472247794,0.6195955062
1787895301479944670,-0.099,,,,1787895301479944670,0.6203651938
1787895301487641546,-0.102,,,,1787895301487641546,0.6211348814
1787895301495338422,-0.099,,,,1787895301495338422,0.621904569
1787895301503035298,-0.094,,,,1787895301503035298,0.6226742566
1787895301510732174,-0.092,,,,1787895301510732174,0.6234439442
1787895301518429050,-0.089,,,,1787895301518429050,0.6242136318
1787895301526125926,-0.094,,,,1787895301526125926,0.6249833194
1787895301533822802,-0.094,,,,1787895301533822802,0.625753007
1787895301541519678,-0.089,,,,1787895301541519678,0.6265226946
1787895301549216554,-0.094,,,,1787895301549216554,0.6272923822
1787895301556913430,-0.099,,,,1787895301556913430,0.6280620698
1787895301564610306,-0.094,,,,1787895301564610306,0.6288317574
1787895301572307182,-0.07,,,,1787895301572307182,0.629601445
1787895301580004058,-0.041,,,,1787895301580004058,0.6303711326
1787895301587700934,-0.026,,,,1787895301587700934,0.6311408202
1787895301595397810,-0.038,,,,1787895301595397810,0.6319105078
1787895301603094686,-0.058,,,,1787895301603094686,0.6326801954
1787895301610791562,-0.055,,,,1787895301610791562,0.633449883
1787895301618488438,-0.051,,,,1787895301618488438,0.6342195706
1787895301626185314,-0.065,,,,1787895301626185314,0.6349892582
1787895301633882190,-0.072,,,,1787895301633882190,0.6357589458
1787895301641579066,-0.06,,,,1787895301641579066,0.6365286334
1787895301649275942,-0.055,,,,1787895301649275942,0.637298321
1787895301656972818,-0.077,,,,1787895301656972818,0.6380680086
1787895301664669694,-0.116,,,,1787895301664669694,0.6388376962
1787895301672366570,-0.024,,,,1787895301672366570,0.6396073838
1787895301680063446,0.366,,,,1787895301680063446,0.6403770714
1787895301687760322,0.84,,,,1787895301687760322,0.641146759
1787895301695457198,0.806,,,,1787895301695457198,0.6419164466
1787895301703154074,0.121,,,,1787895301703154074,0.6426861342
1787895301710850950,-0.548,,,,1787895301710850950,0.6434558218
1787895301718547826,-0.687,,,,1787895301718547826,0.6442255094
1787895301726244702,-0.5,,,,1787895301726244702,0.644995197
1787895301733941578,-0.313,,,,1787895301733941578,0.6457648846
1787895301741638454,-0.16,,,,1787895301741638454,0.6465345722
1787895301749335330,-0.051,,,,1787895301749335330,0.6473042598
1787895301757032206,-0.034,,,,1787895301757032206,0.6480739474
1787895301764729082,-0.043,,,,1787895301764729082,0.648843635
1787895301772425958,-0.026,,,,1787895301772425958,0.6496133226
1787895301780122834,-0.009,,,,1787895301780122834,0.6503830102
1787895301787819710,-0.009,,,,1787895301787819710,0.6511526978
1787895301795516586,-0.002,,,,1787895301795516586,0.6519223854
1787895301803213462,0.017,,,,1787895301803213462,0.652692073
1787895301810910338,0.029,,,,1787895301810910338,0.6534617606
1787895301818607214,0.036,,,,1787895301818607214,0.6542314482
1787895301826304090,0.051,,,,1787895301826304090,0.6550011358
1787895301834000966,0.075,,,,1787895301834000966,0.6557708234
1787895301841697842,0.094,,,,1787895301841697842,0.656540511
1787895301849394718,0.114,,,,1787895301849394718,0.6573101986
1787895301857091594,0.133,,,,1787895301857091594,0.6580798862
1787895301864788470,0.14,,,,1787895301864788470,0.6588495738
1787895301872485346,0.138,,,,1787895301872485346,0.6596192614
1787895301880182222,0.133,,,,1787895301880182222,0.660388949
1787895301887879098,0.123,,,,1787895301887879098,0.6611586366
1787895301895575974,0.109,,,,1787895301895575974,0.6619283242
1787895301903272850,0.089,,,,1787895301903272850,0.6626980118
1787895301910969726,0.068,,,,1787895301910969726,0.6634676994
1787895301918666602,0.043,,,,1787895301918666602,0.664237387
1787895301926363478,0.014,,,,1787895301926363478,0.6650070746
1787895301934060354,-0.021,,,,1787895301934060354,0.6657767622
1787895301941757230,-0.058,,,,1787895301941757230,0.6665464498
1787895301949454106,-0.082,,,,1787895301949454106,0.6673161374
1787895301957150982,-0.109,,,,1787895301957150982,0.668085825
1787895301964847858,-0.133,,,,1787895301964847858,0.6688555126
1787895301972544734,-0.148,,,,1787895301972544734,0.6696252002
1787895301980241610,-0.16,,,,1787895301980241610,0.6703948878
1787895301987938486,-0.162,,,,1787895301987938486,0.6711645754
1787895301995635362,-0.16,,,,1787895301995635362,0.671934263
1787895302003332238,-0.155,,,,1787895302003332238,0.6727039506
1787895302011029114,-0.15,,,,1787895302011029114,0.6734736382
1787895302018726026,-0.14,104.0,646.0,,1787895302018726026,0.6742433294
1787895302026422902,-0.126,,,,1787895302026422902,0.675013017
1787895302034119778,-0.106,,,,1787895302034119778,0.6757827046
1787895302041816654,-0.099,,,,1787895302041816654,0.6765523922
1787895302049513530,-0.102,,,,1787895302049513530,0.6773220798
1787895302057210406,-0.094,,,,1787895302057210406,0.6780917674
1787895302064907282,-0.092,,,,1787895302064907282,0.678861455
1787895302072604158,-0.102,,,,1787895302072604158,0.6796311426
1787895302080301034,-0.102,,,,1787895302080301034,0.6804008302
1787895302087997910,-0.097,,,,1787895302087997910,0.6811705178
1787895302095694786,-0.087,,,,1787895302095694786,0.6819402054
1787895302103391662,-0.085,,,,1787895302103391662,0.682709893
1787895302111088538,-0.087,,,,1787895302111088538,0.6834795806
1787895302118785414,-0.097,,,,1787895302118785414,0.6842492682
1787895302126482290,-0.111,,,,1787895302126482290,0.6850189558
1787895302134179166,-0.111,,,,1787895302134179166,0.6857886434
1787895302141876042,-0.102,,,,1787895302141876042,0.686558331
1787895302149572918,-0.087,,,,1787895302149572918,0.6873280186
1787895302157269794,-0.087,,,,1787895302157269794,0.6880977062
1787895302164966670,-0.099,,,,1787895302164966670,0.6888673938
1787895302172663546,-0.109,,,,1787895302172663546,0.6896370814
1787895302180360422,-0.123,,,,1787895302180360422,0.690406769
1787895302188057298,-0.133,,,,1787895302188057298,0.6911764566
1787895302195754174,-0.109,,,,1787895302195754174,0.6919461442
1787895302203451050,-0.08,,,,1787895302203451050,0.6927158318
1787895302211147926,-0.075,,,,1787895302211147926,0.6934855194
1787895302218844802,-0.063,,,,1787895302218844802,0.694255207
1787895302226541678,-0.048,,,,1787895302226541678,0.6950248946
1787895302234238554,-0.07,,,,1787895302234238554,0.6957945822
1787895302241935430,-0.109,,,,1787895302241935430,0.6965642698
1787895302249632306,-0.104,,,,1787895302249632306,0.6973339574
1787895302257329182,-0.072,,,,1787895302257329182,0.698103645
1787895302265026058,-0.075,,,,1787895302265026058,0.6988733326
1787895302272722934,-0.085,,,,1787895302272722934,0.6996430202
1787895302280419810,-0.063,,,,1787895302280419810,0.7004127078
1787895302288116686,-0.063,,,,1787895302288116686,0.7011823954
1787895302295813562,-0.102,,,,1787895302295813562,0.701952083
1787895302303510438,-0.126,,,,1787895302303510438,0.7027217706
1787895302311207314,0.017,,,,1787895302311207314,0.7034914582
1787895302318904190,0.451,,,,1787895302318904190,0.7042611458
1787895302326601066,0.85,,,,1787895302326601066,0.7050308334
1787895302334297942,0.655,,,,1787895302334297942,0.705800521
1787895302341994818,-0.075,,,,1787895302341994818,0.7065702086
1787895302349691694,-0.651,,,,1787895302349691694,0.7073398962
1787895302357388570,-0.6990000000000001,,,,1787895302357388570,0.7081095838
1787895302365085446,-0.49,,,,1787895302365085446,0.7088792714
1787895302372782322,-0.293,,,,1787895302372782322,0.709648959
1787895302380479198,-0.136,,,,1787895302380479198,0.7104186466
1787895302388176074,-0.048,,,,1787895302388176074,0.7111883342
1787895302395872950,-0.038,,,,1787895302395872950,0.7119580218
1787895302403569826,-0.031,,,,1787895302403569826,0.7127277094
1787895302411266702,-0.012,,,,1787895302411266702,0.713497397
1787895302418963578,-0.004,,,,1787895302418963578,0.7142670846
1787895302426660454,0.007,,,,1787895302426660454,0.7150367722
1787895302434357330,0.029,,,,1787895302434357330,0.7158064598
1787895302442054206,0.038,,,,1787895302442054206,0.7165761474
1787895302449751082,0.043,,,,1787895302449751082,0.717345835
1787895302457447958,0.053,,,,1787895302457447958,0.7181155226
1787895302465144834,0.07,,,,1787895302465144834,0.7188852102
1787895302472841710,0.097,,,,1787895302472841710,0.7196548978
1787895302480538586,0.128,,,,1787895302480538586,0.7204245854
1787895302488235462,0.145,,,,1787895302488235462,0.721194273
1787895302495932338,0.155,,,,1787895302495932338,0.7219639606
1787895302503629214,0.162,,,,1787895302503629214,0.7227336482
1787895302511326090,0.157,,,,1787895302511326090,0.7235033358
1787895302519022966,0.148,,,,1787895302519022966,0.7242730234
1787895302526719842,0.133,,,,1787895302526719842,0.725042711
1787895302534416718,0.111,,,,1787895302534416718,0.7258123986
1787895302542113594,0.085,,,,1787895302542113594,0.7265820862
1787895302549810470,0.055,,,,1787895302549810470,0.7273517738
1787895302557507346,0.031,,,,1787895302557507346,0.7281214614
1787895302565204222,0.009,,,,1787895302565204222,0.728891149
1787895302572901098,-0.026,,,,1787895302572901098,0.7296608366
1787895302580598010,-0.065,,,,1787895302580598010,0.7304305278
1787895302588294886,-0.092,,,,1787895302588294886,0.7312002154
1787895302595991762,-0.111,,,,1787895302595991762,0.731969903
1787895302603688638,-0.138,,,,1787895302603688638,0.7327395906
1787895302611385514,-0.162,,,,1787895302611385514,0.7335092782
1787895302619082390,-0.165,,,,1787895302619082390,0.7342789658
1787895302626779266,-0.153,,,,1787895302626779266,0.7350486534
1787895302634476142,-0.148,,,,1787895302634476142,0.735818341
1787895302642173018,-0.15,,,,1787895302642173018,0.7365880286
1787895302649869894,-0.14,,,,1787895302649869894,0.7373577162
1787895302657566770,-0.126,,,,1787895302657566770,0.7381274038
1787895302665263646,-0.109,,,,1787895302665263646,0.7388970914
1787895302672960522,-0.092,,,,1787895302672960522,0.739666779
1787895302680657398,-0.085,,,,1787895302680657398,0.7404364666
1787895302688354274,-0.085,,,,1787895302688354274,0.7412061542
1787895302696051150,-0.075,,,,1787895302696051150,0.7419758418
1787895302703748026,-0.07,,,,1787895302703748026,0.7427455294
1787895302711444902,-0.068,,,,1787895302711444902,0.743515217
1787895302719141778,-0.065,,,,1787895302719141778,0.7442849046
1787895302726838654,-0.065,,,,1787895302726838654,0.7450545922
1787895302734535530,-0.07,,,,1787895302734535530,0.7458242798
1787895302742232406,-0.072,,,,1787895302742232406,0.7465939674
1787895302749929282,-0.075,,,,1787895302749929282,0.747363655
1787895302757626158,-0.075,,,,1787895302757626158,0.7481333426
1787895302765323034,-0.082,,,,1787895302765323034,0.7489030302
1787895302773019910,-0.092,,,,1787895302773019910,0.7496727178
1787895302780716786,-0.092,,,,1787895302780716786,0.7504424054
1787895302788413662,-0.092,,,,1787895302788413662,0.751212093
1787895302796110538,-0.102,,,,1787895302796110538,0.7519817806
1787895302803807414,-0.119,,,,1787895302803807414,0.7527514682
1787895302811504290,-0.121,,,,1787895302811504290,0.7535211558
1787895302819201166,-0.099,,,,1787895302819201166,0.7542908434
1787895302826898042,-0.058,,,,1787895302826898042,0.755060531
1787895302834594918,-0.036,,,,1787895302834594918,0.7558302186
1787895302842291794,-0.072,,,,1787895302842291794,0.7565999062
1787895302849988670,-0.119,,,,1787895302849988670,0.7573695938
1787895302857685546,-0.104,,,,1787895302857685546,0.7581392814
1787895302865382422,-0.072,,,,1787895302865382422,0.758908969
1787895302873079298,-0.072,,,,1787895302873079298,0.7596786566
1787895302880776174,-0.092,,,,1787895302880776174,0.7604483442
1787895302888473050,-0.102,,,,1787895302888473050,0.7612180318
1787895302896169926,-0.082,,,,1787895302896169926,0.7619877194
1787895302903866802,-0.077,,,,1787895302903866802,0.762757407
1787895302911563678,-0.106,,,,1787895302911563678,0.7635270946
1787895302919260554,-0.063,,,,1787895302919260554,0.7642967822
1787895302926957430,0.23,,,,1787895302926957430,0.7650664698
1787895302934654306,0.709,,,,1787895302934654306,0.7658361574
1787895302942351182,0.84,,,,1787895302942351182,0.766605845
1787895302950048058,0.272,,,,1787895302950048058,0.7673755326
1787895302957744934,-0.49,,,,1787895302957744934,0.7681452202
1787895302965441810,-0.76,,,,1787895302965441810,0.7689149078
1787895302973138686,-0.5630000000000001,,,,1787895302973138686,0.7696845954
1787895302980835562,-0.327,,,,1787895302980835562,0.770454283
1787895302988532438,-0.172,,,,1787895302988532438,0.7712239706
1787895302996229314,-0.048,,,,1787895302996229314,0.7719936582
1787895303003926190,-0.009,,,,1787895303003926190,0.7727633458
1787895303011623066,-0.021,,,,1787895303011623066,0.7735330334
1787895303019319942,0.0,,,,1787895303019319942,0.774302721
1787895303027016818,0.014,,,,1787895303027016818,0.7750724086
1787895303034713694,0.012,,,,1787895303034713694,0.7758420962
1787895303042410570,0.031,,,,1787895303042410570,0.7766117838
1787895303050107446,0.053,,,,1787895303050107446,0.7773814714
1787895303057804322,0.063,,,,1787895303057804322,0.778151159
1787895303065501198,0.075,,,,1787895303065501198,0.7789208466
1787895303073198074,0.092,,,,1787895303073198074,0.7796905342
1787895303080894950,0.106,,,,1787895303080894950,0.7804602218
1787895303088591826,0.119,,,,1787895303088591826,0.7812299094
1787895303096288702,0.14,,,,1787895303096288702,0.781999597
1787895303103985578,0.172,,,,1787895303103985578,0.7827692846
1787895303111682454,0.177,,,,1787895303111682454,0.7835389722
1787895303119379330,0.155,,,,1787895303119379330,0.7843086598
1787895303127076206,0.14,,,,1787895303127076206,0.7850783474
1787895303134773082,0.14,,,,1787895303134773082,0.785848035
1787895303142469994,0.119,100.0,674.0,,1787895303142469994,0.7866177262
1787895303150166870,0.085,,680.0,,1787895303150166870,0.7873874138
1787895303157863746,0.07,,,,1787895303157863746,0.7881571014
1787895303165560622,0.068,,,,1787895303165560622,0.788926789
1787895303173257498,0.046,,,,1787895303173257498,0.7896964766
1787895303180954374,0.002,,,,1787895303180954374,0.7904661642
1787895303188651250,-0.034,,,,1787895303188651250,0.7912358518
1787895303196348126,-0.055,,,,1787895303196348126,0.7920055394
1787895303204045002,-0.075,,,,1787895303204045002,0.792775227
1787895303211741878,-0.102,,,,1787895303211741878,0.7935449146
1787895303219438754,-0.123,,,,1787895303219438754,0.7943146022
1787895303227135630,-0.111,,,,1787895303227135630,0.7950842898
1787895303234832506,-0.114,,,,1787895303234832506,0.7958539774
1787895303242529382,-0.133,,,,1787895303242529382,0.796623665
1787895303250226258,-0.099,,,,1787895303250226258,0.7973933526
1787895303257923134,-0.053,,,,1787895303257923134,0.7981630402
1787895303265620010,-0.072,,,,1787895303265620010,0.7989327278
1787895303273316886,-0.087,,,,1787895303273316886,0.7997024154
1787895303281013762,-0.06,,,,1787895303281013762,0.800472103
1787895303288710638,-0.051,,,,1787895303288710638,0.8012417906
1787895303296407514,-0.075,,,,1787895303296407514,0.8020114782
1787895303304104390,-0.08,,,,1787895303304104390,0.8027811658
1787895303311801266,-0.043,,,,1787895303311801266,0.8035508534
1787895303319498142,-0.021,,,,1787895303319498142,0.804320541
1787895303327195018,-0.055,,,,1787895303327195018,0.8050902286
1787895303334891894,-0.075,,,,1787895303334891894,0.8058599162
1787895303342588770,-0.036,,,,1787895303342588770,0.8066296038
1787895303350285646,-0.038,,,,1787895303350285646,0.8073992914
1787895303357982522,-0.075,,,,1787895303357982522,0.808168979
1787895303365679398,-0.07,,,,1787895303365679398,0.8089386666
1787895303373376274,-0.075,,,,1787895303373376274,0.8097083542
1787895303381073150,-0.109,,,,1787895303381073150,0.8104780418
1787895303388770026,-0.111,,,,1787895303388770026,0.8112477294
1787895303396466902,-0.087,,,,1787895303396466902,0.812017417
1787895303404163778,-0.034,,,,1787895303404163778,0.8127871046
1787895303411860654,0.009,,,,1787895303411860654,0.8135567922
1787895303419557530,-0.038,,,,1787895303419557530,0.8143264798
1787895303427254406,-0.087,,,,1787895303427254406,0.8150961674
1787895303434951282,-0.053,,,,1787895303434951282,0.815865855
1787895303442648158,-0.031,,,,1787895303442648158,0.8166355426
1787895303450345034,-0.051,,,,1787895303450345034,0.8174052302
1787895303458041910,-0.046,,,,1787895303458041910,0.8181749178
1787895303465738786,-0.036,,,,1787895303465738786,0.8189446054
1787895303473435662,-0.043,,,,1787895303473435662,0.819714293
1787895303481132538,-0.06,,,,1787895303481132538,0.8204839806
1787895303488829414,-0.111,,,,1787895303488829414,0.8212536682
1787895303496526290,-0.092,,,,1787895303496526290,0.8220233558
1787895303504223166,0.177,,,,1787895303504223166,0.8227930434
1787895303511920042,0.636,,,,1787895303511920042,0.823562731
1787895303519616918,0.842,,,,1787895303519616918,0.8243324186
1787895303527313794,0.432,,,,1787895303527313794,0.8251021062
1787895303535010670,-0.291,,,,1787895303535010670,0.8258717938
1787895303542707546,-0.668,,,,1787895303542707546,0.8266414814
1787895303550404422,-0.5730000000000001,,,,1787895303550404422,0.827411169
1787895303558101298,-0.378,,,,1787895303558101298,0.8281808566
1787895303565798174,-0.233,,,,1787895303565798174,0.8289505442
1787895303573495050,-0.08,,,,1787895303573495050,0.8297202318
1787895303581191926,0.029,,,,1787895303581191926,0.8304899194
1787895303588888802,0.024,,,,1787895303588888802,0.831259607
1787895303596585678,-0.019,,,,1787895303596585678,0.8320292946
1787895303604282554,0.002,,,,1787895303604282554,0.8327989822
1787895303611979430,0.031,,,,1787895303611979430,0.8335686698
1787895303619676306,0.009,,,,1787895303619676306,0.8343383574
1787895303627373182,0.021,,,,1787895303627373182,0.835108045
1787895303635070058,0.094,,,,1787895303635070058,0.8358777326
1787895303642766934,0.099,,,,1787895303642766934,0.8366474202
1787895303650463810,0.021,,,,1787895303650463810,0.8374171078
1787895303658160686,0.058,,,,1787895303658160686,0.8381867954
1787895303665857562,0.177,,,,1787895303665857562,0.838956483
1787895303673554438,0.167,,,,1787895303673554438,0.8397261706
1787895303681251314,0.123,,,,1787895303681251314,0.8404958582
1787895303688948190,0.199,,,,1787895303688948190,0.8412655458
1787895303696645066,0.216,,,,1787895303696645066,0.8420352334
1787895303704341978,0.126,,,,1787895303704341978,0.8428049246
1787895303712038854,0.109,,,,1787895303712038854,0.8435746122
1787895303719735730,0.14,,,,1787895303719735730,0.8443442998
1787895303727432606,0.14,,,,1787895303727432606,0.8451139874
1787895303735129482,0.131,,,,1787895303735129482,0.845883675
1787895303742826358,0.121,,,,1787895303742826358,0.8466533626
1787895303750523234,0.092,,,,1787895303750523234,0.8474230502
1787895303758220110,0.051,,,,1787895303758220110,0.8481927378
1787895303765916986,0.029,,,,1787895303765916986,0.8489624254
1787895303773613862,0.024,,,,1787895303773613862,0.849732113
1787895303781310738,0.007,,,,1787895303781310738,0.8505018006
1787895303789007614,-0.036,,,,1787895303789007614,0.8512714882
1787895303796704490,-0.075,,,,1787895303796704490,0.8520411758
1787895303804401366,-0.058,,,,1787895303804401366,0.8528108634
1787895303812098242,-0.017,,,,1787895303812098242,0.853580551
1787895303819795118,-0.021,,,,1787895303819795118,0.8543502386
1787895303827491994,-0.038,,,,1787895303827491994,0.8551199262
1787895303835188870,-0.002,,,,1787895303835188870,0.8558896138
1787895303842885746,0.043,,,,1787895303842885746,0.8566593014
1787895303850582622,0.004,,,,1787895303850582622,0.857428989
1787895303858279498,-0.038,,,,1787895303858279498,0.8581986766
1787895303865976374,0.055,,,,1787895303865976374,0.8589683642
1787895303873673250,0.121,,,,1787895303873673250,0.8597380518
1787895303881370126,0.009,,,,1787895303881370126,0.8605077394
1787895303889067002,-0.036,,,,1787895303889067002,0.861277427
1787895303896763878,0.065,,,,1787895303896763878,0.8620471146
1787895303904460754,0.06,,,,1787895303904460754,0.8628168022
1787895303912157630,-0.007,,,,1787895303912157630,0.8635864898
1787895303919854506,0.053,,,,1787895303919854506,0.8643561774
1787895303927551382,0.07,,,,1787895303927551382,0.865125865
1787895303935248258,0.017,,,,1787895303935248258,0.8658955526
1787895303942945134,0.017,,,,1787895303942945134,0.8666652402
1787895303950642010,0.017,,,,1787895303950642010,0.8674349278
1787895303958338886,0.043,,,,1787895303958338886,0.8682046154
1787895303966035762,0.068,,,,1787895303966035762,0.868974303
1787895303973732638,0.036,,,,1787895303973732638,0.8697439906
1787895303981429514,0.029,,,,1787895303981429514,0.8705136782
1787895303989126390,0.041,,,,1787895303989126390,0.8712833658
1787895303996823266,0.024,,,,1787895303996823266,0.8720530534
1787895304004520142,0.031,,,,1787895304004520142,0.872822741
1787895304012217018,0.07,,,,1787895304012217018,0.8735924286
1787895304019913894,0.036,,,,1787895304019913894,0.8743621162
1787895304027610770,-0.034,,,,1787895304027610770,0.8751318038
1787895304035307646,-0.014,,,,1787895304035307646,0.8759014914
1787895304043004522,0.019,,,,1787895304043004522,0.876671179
1787895304050701398,-0.004,,,,1787895304050701398,0.8774408666
1787895304058398274,-0.063,,,,1787895304058398274,0.8782105542
1787895304066095150,-0.058,,,,1787895304066095150,0.8789802418
1787895304073792026,0.196,,,,1787895304073792026,0.8797499294
1787895304081488902,0.685,,,,1787895304081488902,0.880519617
1787895304089185778,0.954,,,,1787895304089185778,0.8812893046
1787895304096882654,0.597,,,,1787895304096882654,0.8820589922
1787895304104579530,-0.111,,,,1787895304104579530,0.8828286798
1787895304112276406,-0.524,,,,1787895304112276406,0.8835983674
1787895304119973282,-0.456,,,,1787895304119973282,0.884368055
1787895304127670158,-0.228,,,,1787895304127670158,0.8851377426
1787895304135367034,-0.114,,,,1787895304135367034,0.8859074302
1787895304143063910,-0.048,,,,1787895304143063910,0.8866771178
1787895304150760786,0.053,,,,1787895304150760786,0.8874468054
1787895304158457662,0.119,,,,1787895304158457662,0.888216493
1787895304166154538,0.153,,,,1787895304166154538,0.8889861806
1787895304173851414,0.172,,,,1787895304173851414,0.8897558682
1787895304181548290,0.16,,,,1787895304181548290,0.8905255558
1787895304189245166,0.177,,,,1787895304189245166,0.8912952434
1787895304196942042,0.177,,,,1787895304196942042,0.892064931
1787895304204638918,0.153,,,,1787895304204638918,0.8928346186
1787895304212335794,0.194,,,,1787895304212335794,0.8936043062
1787895304220032670,0.228,,,,1787895304220032670,0.8943739938
1787895304227729546,0.182,,,,1787895304227729546,0.8951436814
1787895304235426422,0.17,,,,1787895304235426422,0.895913369
1787895304243123298,0.259,,,,1787895304243123298,0.8966830566
1787895304250820174,0.31,,,,1787895304250820174,0.8974527442
1787895304258517050,0.296,,,,1787895304258517050,0.8982224318
1787895304266213964,0.342,97.0,638.0,,1787895304266213964,0.8989921232
1787895304273910561,0.369,,611.0,,1787895304273910561,0.8997617829
1787895304281607158,0.335,,,,1787895304281607158,0.9005314426
1787895304289303755,0.337,,,,1787895304289303755,0.9013011023
1787895304297000352,0.34,,,,1787895304297000352,0.902070762
1787895304304696949,0.337,,,,1787895304304696949,0.9028404217
1787895304312393546,0.31,,,,1787895304312393546,0.9036100814
1787895304320090143,0.206,,,,1787895304320090143,0.9043797411
1787895304327786740,0.14,,,,1787895304327786740,0.9051494008
1787895304335483337,0.194,,,,1787895304335483337,0.9059190605
1787895304343179934,0.206,,,,1787895304343179934,0.9066887202
1787895304350876531,0.16,,,,1787895304350876531,0.9074583799
1787895304358573128,0.167,,,,1787895304358573128,0.9082280396
1787895304366269725,0.172,,,,1787895304366269725,0.9089976993
1787895304373966322,0.128,,,,1787895304373966322,0.909767359
1787895304381662919,0.097,,,,1787895304381662919,0.9105370187
1787895304389359516,0.14,,,,1787895304389359516,0.9113066784
1787895304397056113,0.184,,,,1787895304397056113,0.9120763381
1787895304404752710,0.15,,,,1787895304404752710,0.9128459978
1787895304412449307,0.106,,,,1787895304412449307,0.9136156575
1787895304420145904,0.102,,,,1787895304420145904,0.9143853172
1787895304427842501,0.121,,,,1787895304427842501,0.9151549769
1787895304435539098,0.133,,,,1787895304435539098,0.9159246366
1787895304443235695,0.145,,,,1787895304443235695,0.9166942963
1787895304450932292,0.17,,,,1787895304450932292,0.917463956
1787895304458628889,0.162,,,,1787895304458628889,0.9182336157
1787895304466325486,0.123,,,,1787895304466325486,0.9190032754
1787895304474022083,0.104,,,,1787895304474022083,0.9197729351
1787895304481718680,0.145,,,,1787895304481718680,0.9205425948
1787895304489415277,0.138,,,,1787895304489415277,0.9213122545
1787895304497111874,0.089,,,,1787895304497111874,0.9220819142
1787895304504808471,0.104,,,,1787895304504808471,0.9228515739
1787895304512505068,0.102,,,,1787895304512505068,0.9236212336
1787895304520201665,0.043,,,,1787895304520201665,0.9243908933
1787895304527898262,0.036,,,,1787895304527898262,0.925160553
1787895304535594859,0.099,,,,1787895304535594859,0.9259302127
1787895304543291456,0.111,,,,1787895304543291456,0.9266998724
1787895304550988053,0.082,,,,1787895304550988053,0.9274695321
1787895304558684650,0.14,,,,1787895304558684650,0.9282391918
1787895304566381247,0.143,,,,1787895304566381247,0.9290088515
1787895304574077844,0.038,,,,1787895304574077844,0.9297785112
1787895304581774441,0.012,,,,1787895304581774441,0.9305481709
1787895304589471038,0.014,,,,1787895304589471038,0.9313178306
1787895304597167635,0.034,,,,1787895304597167635,0.9320874903
1787895304604864232,0.104,,,,1787895304604864232,0.93285715
1787895304612560829,0.097,,,,1787895304612560829,0.9336268097
1787895304620257426,0.024,,,,1787895304620257426,0.9343964694
1787895304627954023,0.082,,,,1787895304627954023,0.9351661291
1787895304635650620,0.41,,,,1787895304635650620,0.9359357888
1787895304643347217,0.864,,,,1787895304643347217,0.9367054485
1787895304651043814,1.005,,,,1787895304651043814,0.9374751082
1787895304658740411,0.6,,,,1787895304658740411,0.9382447679
1787895304666437008,-0.053,,,,1787895304666437008,0.9390144276
1787895304674133605,-0.442,,,,1787895304674133605,0.9397840873
1787895304681830202,-0.456,,,,1787895304681830202,0.940553747
1787895304689526799,-0.303,,,,1787895304689526799,0.9413234067
1787895304697223396,-0.123,,,,1787895304697223396,0.9420930664
1787895304704919993,-0.053,,,,1787895304704919993,0.9428627261
1787895304712616590,-0.053,,,,1787895304712616590,0.9436323858
1787895304720313187,0.036,,,,1787895304720313187,0.9444020455
1787895304728009784,0.109,,,,1787895304728009784,0.9451717052
1787895304735706381,0.065,,,,1787895304735706381,0.9459413649
1787895304743402978,0.048,,,,1787895304743402978,0.9467110246
1787895304751099575,0.082,,,,1787895304751099575,0.9474806843
1787895304758796172,0.119,,,,1787895304758796172,0.948250344
1787895304766492769,0.138,,,,1787895304766492769,0.9490200037
1787895304774189366,0.077,,,,1787895304774189366,0.9497896634
1787895304781885963,0.06,,,,1787895304781885963,0.9505593231
1787895304789582560,0.179,,,,1787895304789582560,0.9513289828
1787895304797279157,0.218,,,,1787895304797279157,0.9520986425
1787895304804975754,0.145,,,,1787895304804975754,0.9528683022
1787895304812672351,0.155,,,,1787895304812672351,0.9536379619
1787895304820368948,0.221,,,,1787895304820368948,0.9544076216
1787895304828065602,0.216,,,,1787895304828065602,0.955177287
1787895304835762339,0.179,,,,1787895304835762339,0.9559469607
1787895304843459076,0.14,,,,1787895304843459076,0.9567166344
1787895304851155813,0.089,,,,1787895304851155813,0.9574863081
1787895304858852550,0.116,,,,1787895304858852550,0.9582559818
1787895304866549287,0.157,,,,1787895304866549287,0.9590256555
1787895304874246024,0.109,,,,1787895304874246024,0.9597953292
1787895304881942761,0.075,,,,1787895304881942761,0.9605650029
1787895304889639498,0.065,,,,1787895304889639498,0.9613346766
1787895304897336235,0.036,,,,1787895304897336235,0.9621043503
1787895304905032972,-0.021,,,,1787895304905032972,0.962874024
1787895304912729709,-0.077,,,,1787895304912729709,0.9636436977
1787895304920426446,-0.07,,,,1787895304920426446,0.9644133714
1787895304928123183,-0.053,,,,1787895304928123183,0.9651830451
1787895304935819920,-0.029,,,,1787895304935819920,0.9659527188
1787895304943516657,-0.007,,,,1787895304943516657,0.9667223925
1787895304951213394,-0.046,,,,1787895304951213394,0.9674920662
1787895304958910131,-0.06,,,,1787895304958910131,0.9682617399
1787895304966606868,-0.002,,,,1787895304966606868,0.9690314136
1787895304974303605,-0.038,,,,1787895304974303605,0.9698010873
1787895304982000342,-0.06,,,,1787895304982000342,0.970570761
1787895304989697079,0.065,,,,1787895304989697079,0.9713404347
1787895304997393816,0.063,,,,1787895304997393816,0.9721101084
1787895305005090553,-0.068,,,,1787895305005090553,0.9728797821
1787895305012787290,-0.075,,,,1787895305012787290,0.9736494558
1787895305020484027,-0.048,,,,1787895305020484027,0.9744191295
1787895305028180764,-0.06,,,,1787895305028180764,0.9751888032
1787895305035877501,-0.012,,,,1787895305035877501,0.9759584769
1787895305043574238,0.07,,,,1787895305043574238,0.9767281506
1787895305051270975,0.014,,,,1787895305051270975,0.9774978243
1787895305058967712,-0.07,,,,1787895305058967712,0.978267498
1787895305066664449,-0.007,,,,1787895305066664449,0.9790371717
1787895305074361186,0.002,,,,1787895305074361186,0.9798068454
1787895305082057923,-0.08,,,,1787895305082057923,0.9805765191
1787895305089754660,-0.026,,,,1787895305089754660,0.9813461928
1787895305097451397,0.058,,,,1787895305097451397,0.9821158665
1787895305105148134,-0.024,,,,1787895305105148134,0.9828855402
1787895305112844871,-0.109,,,,1787895305112844871,0.9836552139
1787895305120541608,-0.012,,,,1787895305120541608,0.9844248876
1787895305128238345,0.058,,,,1787895305128238345,0.9851945613
1787895305135935082,-0.026,,,,1787895305135935082,0.985964235
1787895305143631819,-0.058,,,,1787895305143631819,0.9867339087
1787895305151328556,0.019,,,,1787895305151328556,0.9875035824
1787895305159025293,-0.019,,,,1787895305159025293,0.9882732561
1787895305166722030,-0.109,,,,1787895305166722030,0.9890429298
1787895305174418767,-0.065,,,,1787895305174418767,0.9898126035
1787895305182115504,-0.024,,,,1787895305182115504,0.9905822772
1787895305189812241,0.148,,,,1787895305189812241,0.9913519509
1787895305197508978,0.6990000000000001,,,,1787895305197508978,0.9921216246
1787895305205205715,1.149,,,,1787895305205205715,0.9928912983
1787895305212902452,0.8160000000000001,,,,1787895305212902452,0.993660972
1787895305220599189,-0.031,,,,1787895305220599189,0.9944306457
1787895305228295926,-0.551,,,,1787895305228295926,0.9952003194
1787895305235992663,-0.522,,,,1787895305235992663,0.9959699931
1787895305243689400,-0.33,,,,1787895305243689400,0.9967396668
1787895305251386137,-0.216,,,,1787895305251386137,0.9975093405
1787895305259082874,-0.17,,,,1787895305259082874,0.9982790142
1787895305266779611,-0.123,,,,1787895305266779611,0.9990486879
1787895305274476348,-0.019,,,,1787895305274476348,0.9998183616
1787895305282173085,0.026,,,,1787895305282173085,1.0005880353
1787895305289869822,0.0,,,,1787895305289869822,1.001357709
1787895305297566559,0.07,,,,1787895305297566559,1.0021273827
1787895305305263296,0.038,,,,1787895305305263296,1.0028970564
1787895305312960033,-0.089,,,,1787895305312960033,1.0036667301
1787895305320656770,0.055,,,,1787895305320656770,1.0044364038
1787895305328353507,0.177,,,,1787895305328353507,1.0052060775
1787895305336050244,0.004,,,,1787895305336050244,1.0059757512
1787895305343746981,-0.031,,,,1787895305343746981,1.0067454249
1787895305351443718,0.187,,,,1787895305351443718,1.0075150986
1787895305359140455,0.201,,,,1787895305359140455,1.0082847723
1787895305366837192,0.104,,,,1787895305366837192,1.009054446
1787895305374533929,0.206,,,,1787895305374533929,1.0098241197
1787895305382230666,0.179,,,,1787895305382230666,1.0105937934
1787895305389927414,0.094,97.0,579.0,,1787895305389927414,1.0113634682
1787895305397624290,0.206,,570.0,,1787895305397624290,1.0121331558
1787895305405321166,0.187,,,,1787895305405321166,1.0129028434
1787895305413018042,0.034,,,,1787895305413018042,1.013672531
1787895305420714918,0.06,,,,1787895305420714918,1.0144422186
1787895305428411794,0.138,,,,1787895305428411794,1.0152119062
1787895305436108670,0.063,,,,1787895305436108670,1.0159815938
1787895305443805546,0.026,,,,1787895305443805546,1.0167512814
1787895305451502422,0.019,,,,1787895305451502422,1.017520969
1787895305459199298,-0.065,,,,1787895305459199298,1.0182906566
1787895305466896174,-0.077,,,,1787895305466896174,1.0190603442
1787895305474593050,-0.094,,,,1787895305474593050,1.0198300318
1787895305482289926,-0.126,,,,1787895305482289926,1.0205997194
1787895305489986802,-0.051,,,,1787895305489986802,1.021369407
1787895305497683678,-0.058,,,,1787895305497683678,1.0221390946
1787895305505380554,-0.17,,,,1787895305505380554,1.0229087822
1787895305513077430,-0.153,,,,1787895305513077430,1.0236784698
1787895305520774306,-0.082,,,,1787895305520774306,1.0244481574
1787895305528471182,-0.104,,,,1787895305528471182,1.025217845
1787895305536168058,-0.072,,,,1787895305536168058,1.0259875326
1787895305543864934,-0.014,,,,1787895305543864934,1.0267572202
1787895305551561810,-0.089,,,,1787895305551561810,1.0275269078
1787895305559258686,-0.116,,,,1787895305559258686,1.0282965954
1787895305566955562,-0.014,,,,1787895305566955562,1.029066283
1787895305574652438,-0.019,,,,1787895305574652438,1.0298359706
1787895305582349314,-0.097,,,,1787895305582349314,1.0306056582
1787895305590046190,-0.126,,,,1787895305590046190,1.0313753458
1787895305597743066,-0.106,,,,1787895305597743066,1.0321450334
1787895305605439942,-0.009,,,,1787895305605439942,1.032914721
1787895305613136818,0.002,,,,1787895305613136818,1.0336844086
1787895305620833694,-0.087,,,,1787895305620833694,1.0344540962
1787895305628530570,-0.106,,,,1787895305628530570,1.0352237838
1787895305636227446,-0.111,,,,1787895305636227446,1.0359934714
1787895305643924322,-0.153,,,,1787895305643924322,1.036763159
1787895305651621198,-0.172,,,,1787895305651621198,1.0375328466
1787895305659318074,-0.094,,,,1787895305659318074,1.0383025342
1787895305667014950,0.038,,,,1787895305667014950,1.0390722218
1787895305674711826,-0.046,,,,1787895305674711826,1.0398419094
1787895305682408702,-0.194,,,,1787895305682408702,1.040611597
1787895305690105578,-0.055,,,,1787895305690105578,1.0413812846
1787895305697802454,-0.029,,,,1787895305697802454,1.0421509722
1787895305705499330,-0.257,,,,1787895305705499330,1.0429206598
1787895305713196206,-0.204,,,,1787895305713196206,1.0436903474
1787895305720893082,-0.031,,,,1787895305720893082,1.044460035
1787895305728589958,-0.145,,,,1787895305728589958,1.0452297226
1787895305736286834,-0.123,,,,1787895305736286834,1.0459994102
1787895305743983710,0.204,,,,1787895305743983710,1.0467690978
1787895305751680586,0.612,,,,1787895305751680586,1.0475387854
1787895305759377462,0.986,,,,1787895305759377462,1.048308473
1787895305767074338,0.753,,,,1787895305767074338,1.0490781606
1787895305774771214,-0.106,,,,1787895305774771214,1.0498478482
1787895305782468090,-0.612,,,,1787895305782468090,1.0506175358
1787895305790164966,-0.558,,,,1787895305790164966,1.0513872234
1787895305797861842,-0.403,,,,1787895305797861842,1.052156911
1787895305805558718,-0.296,,,,1787895305805558718,1.0529265986
1787895305813255594,-0.206,,,,1787895305813255594,1.0536962862
1787895305820952470,-0.094,,,,1787895305820952470,1.0544659738
1787895305828649346,-0.017,,,,1787895305828649346,1.0552356614
1787895305836346222,0.009,,,,1787895305836346222,1.056005349
1787895305844043098,-0.017,,,,1787895305844043098,1.0567750366
1787895305851739974,-0.109,,,,1787895305851739974,1.0575447242
1787895305859436850,-0.065,,,,1787895305859436850,1.0583144118
1787895305867133726,0.08,,,,1787895305867133726,1.0590840994
1787895305874830602,0.072,,,,1787895305874830602,1.059853787
1787895305882527478,0.034,,,,1787895305882527478,1.0606234746
1787895305890224354,0.036,,,,1787895305890224354,1.0613931622
1787895305897921230,-0.021,,,,1787895305897921230,1.0621628498
1787895305905618106,0.075,,,,1787895305905618106,1.0629325374
1787895305913314982,0.228,,,,1787895305913314982,1.063702225
1787895305921011858,0.128,,,,1787895305921011858,1.0644719126
1787895305928708734,0.116,,,,1787895305928708734,1.0652416002
1787895305936405610,0.255,,,,1787895305936405610,1.0660112878
1787895305944102486,0.109,,,,1787895305944102486,1.0667809754
1787895305951799398,0.009,,,,1787895305951799398,1.0675506666
1787895305959496274,0.233,,,,1787895305959496274,1.0683203542
1787895305967193150,0.274,,,,1787895305967193150,1.0690900418
1787895305974890026,0.07,,,,1787895305974890026,1.0698597294
1787895305982586902,0.021,,,,1787895305982586902,1.070629417
1787895305990283778,0.065,,,,1787895305990283778,1.0713991046
1787895305997980654,-0.043,,,,1787895305997980654,1.0721687922
1787895306005677530,-0.119,,,,1787895306005677530,1.0729384798
1787895306013374406,-0.043,,,,1787895306013374406,1.0737081674
1787895306021071282,-0.055,,,,1787895306021071282,1.074477855
1787895306028768158,-0.174,,,,1787895306028768158,1.0752475426
1787895306036465034,-0.213,,,,1787895306036465034,1.0760172302
1787895306044161910,-0.16,,,,1787895306044161910,1.0767869178
1787895306051858786,-0.199,,,,1787895306051858786,1.0775566054
1787895306059555662,-0.264,,,,1787895306059555662,1.078326293
1787895306067252538,-0.16,,,,1787895306067252538,1.0790959806
1787895306074949414,-0.111,,,,1787895306074949414,1.0798656682
1787895306082646290,-0.233,,,,1787895306082646290,1.0806353558
1787895306090343166,-0.196,,,,1787895306090343166,1.0814050434
1787895306098040042,-0.082,,,,1787895306098040042,1.082174731
1787895306105736918,-0.177,,,,1787895306105736918,1.0829444186
1787895306113433794,-0.269,,,,1787895306113433794,1.0837141062
1787895306121130670,-0.211,,,,1787895306121130670,1.0844837938
1787895306128827546,-0.187,,,,1787895306128827546,1.0852534814
1787895306136524422,-0.233,,,,1787895306136524422,1.086023169
1787895306144221298,-0.245,,,,1787895306144221298,1.0867928566
1787895306151918174,-0.208,,,,1787895306151918174,1.0875625442
1787895306159615050,-0.247,,,,1787895306159615050,1.0883322318
1787895306167311926,-0.364,,,,1787895306167311926,1.0891019194
1787895306175008802,-0.303,,,,1787895306175008802,1.089871607
1787895306182705678,-0.172,,,,1787895306182705678,1.0906412946
1787895306190402554,-0.276,,,,1787895306190402554,1.0914109822
1787895306198099430,-0.369,,,,1787895306198099430,1.0921806698
1787895306205796306,-0.281,,,,1787895306205796306,1.0929503574
1787895306213493182,-0.298,,,,1787895306213493182,1.093720045
1787895306221190058,-0.429,,,,1787895306221190058,1.0944897326
1787895306228886934,-0.383,,,,1787895306228886934,1.0952594202
1787895306236583810,-0.255,,,,1787895306236583810,1.0960291078
1787895306244280686,-0.313,,,,1787895306244280686,1.0967987954
1787895306251977562,-0.361,,,,1787895306251977562,1.097568483
1787895306259674438,-0.269,,,,1787895306259674438,1.0983381706
1787895306267371314,-0.291,,,,1787895306267371314,1.0991078582
1787895306275068190,-0.439,,,,1787895306275068190,1.0998775458
1787895306282765066,-0.454,,,,1787895306282765066,1.1006472334
1787895306290461942,-0.323,,,,1787895306290461942,1.101416921
1787895306298158818,-0.089,,,,1787895306298158818,1.1021866086
1787895306305855694,0.41,,,,1787895306305855694,1.1029562962
1787895306313552570,0.925,,,,1787895306313552570,1.1037259838
1787895306321249446,0.6920000000000001,,,,1787895306321249446,1.1044956714
1787895306328946322,-0.267,,,,1787895306328946322,1.105265359
1787895306336643198,-0.903,,,,1787895306336643198,1.1060350466
1787895306344340074,-0.8280000000000001,,,,1787895306344340074,1.1068047342
1787895306352036950,-0.617,,,,1787895306352036950,1.1075744218
1787895306359733826,-0.536,,,,1787895306359733826,1.1083441094
1787895306367430702,-0.395,,,,1787895306367430702,1.109113797
1787895306375127578,-0.218,,,,1787895306375127578,1.1098834846
1787895306382824454,-0.204,,,,1787895306382824454,1.1106531722
1787895306390521330,-0.269,,,,1787895306390521330,1.1114228598
1787895306398218206,-0.235,,,,1787895306398218206,1.1121925474
1787895306405915082,-0.172,,,,1787895306405915082,1.112962235
1787895306413611958,-0.102,,,,1787895306413611958,1.1137319226
1787895306421308834,-0.063,,,,1787895306421308834,1.1145016102
1787895306429005710,-0.138,,,,1787895306429005710,1.1152712978
1787895306436702586,-0.136,,,,1787895306436702586,1.1160409854
1787895306444399462,-0.046,,,,1787895306444399462,1.116810673
1787895306452096338,-0.07,,,,1787895306452096338,1.1175803606
1787895306459793214,-0.043,,,,1787895306459793214,1.1183500482
1787895306467490090,0.075,,,,1787895306467490090,1.1191197358
1787895306475186966,0.055,,,,1787895306475186966,1.1198894234
1787895306482883842,0.019,,,,1787895306482883842,1.120659111
1787895306490580718,0.123,,,,1787895306490580718,1.1214287986
1787895306498277594,0.182,,,,1787895306498277594,1.1221984862
1787895306505974470,0.102,,,,1787895306505974470,1.1229681738
1787895306513671382,0.014,99.0,561.0,,1787895306513671382,1.123737865
1787895306521368258,0.0,,,,1787895306521368258,1.1245075526
1787895306529065134,0.051,,,,1787895306529065134,1.1252772402
1787895306536762010,0.009,,,,1787895306536762010,1.1260469278
1787895306544458886,-0.131,,,,1787895306544458886,1.1268166154
1787895306552155762,-0.148,,,,1787895306552155762,1.127586303
1787895306559852638,-0.128,,,,1787895306559852638,1.1283559906
1787895306567549514,-0.269,,,,1787895306567549514,1.1291256782
1787895306575246390,-0.298,,,,1787895306575246390,1.1298953658
1787895306582943266,-0.14,,,,1787895306582943266,1.1306650534
1787895306590640142,-0.148,,,,1787895306590640142,1.131434741
1787895306598337018,-0.276,,,,1787895306598337018,1.1322044286
1787895306606033894,-0.323,,,,1787895306606033894,1.1329741162
1787895306613730770,-0.264,,,,1787895306613730770,1.1337438038
1787895306621427646,-0.218,,,,1787895306621427646,1.1345134914
1787895306629124522,-0.298,,,,1787895306629124522,1.135283179
1787895306636821398,-0.357,,,,1787895306636821398,1.1360528666
1787895306644518274,-0.274,,,,1787895306644518274,1.1368225542
1787895306652215150,-0.208,,,,1787895306652215150,1.1375922418
1787895306659912026,-0.23,,,,1787895306659912026,1.1383619294
1787895306667608902,-0.191,,,,1787895306667608902,1.139131617
1787895306675305778,-0.15,,,,1787895306675305778,1.1399013046
1787895306683002654,-0.162,,,,1787895306683002654,1.1406709922
1787895306690699530,-0.121,,,,1787895306690699530,1.1414406798
1787895306698396406,-0.242,,,,1787895306698396406,1.1422103674
1787895306706093282,-0.376,,,,1787895306706093282,1.142980055
1787895306713790158,-0.182,,,,1787895306713790158,1.1437497426
1787895306721487034,-0.143,,,,1787895306721487034,1.1445194302
1787895306729183910,-0.378,,,,1787895306729183910,1.1452891178
1787895306736880786,-0.313,,,,1787895306736880786,1.1460588054
1787895306744577662,-0.138,,,,1787895306744577662,1.146828493
1787895306752274538,-0.111,,,,1787895306752274538,1.1475981806
1787895306759971414,-0.131,,,,1787895306759971414,1.1483678682
1787895306767668290,-0.252,,,,1787895306767668290,1.1491375558
1787895306775365166,-0.053,,,,1787895306775365166,1.1499072434
1787895306783062042,0.065,,,,1787895306783062042,1.150676931
1787895306790758918,-0.398,,,,1787895306790758918,1.1514466186
1787895306798455794,-0.332,,,,1787895306798455794,1.1522163062
1787895306806152670,0.077,,,,1787895306806152670,1.1529859938
1787895306813849546,-0.221,,,,1787895306813849546,1.1537556814
1787895306821546422,-0.306,,,,1787895306821546422,1.154525369
1787895306829243298,-0.029,,,,1787895306829243298,1.1552950566
1787895306836940174,-0.383,,,,1787895306836940174,1.1560647442
1787895306844637050,-0.561,,,,1787895306844637050,1.1568344318
1787895306852333926,0.046,,,,1787895306852333926,1.1576041194
1787895306860030802,0.602,,,,1787895306860030802,1.158373807
1787895306867727678,0.92,,,,1787895306867727678,1.1591434946
1787895306875424554,0.942,,,,1787895306875424554,1.1599131822
1787895306883121430,0.32,,,,1787895306883121430,1.1606828698
1787895306890818306,-0.459,,,,1787895306890818306,1.1614525574
1787895306898515182,-0.808,,,,1787895306898515182,1.162222245
1787895306906212058,-0.738,,,,1787895306906212058,1.1629919326
1787895306913908934,-0.488,,,,1787895306913908934,1.1637616202
1787895306921605810,-0.332,,,,1787895306921605810,1.1645313078
1787895306929302686,-0.279,,,,1787895306929302686,1.1653009954
1787895306936999562,-0.162,,,,1787895306936999562,1.166070683
1787895306944696438,-0.038,,,,1787895306944696438,1.1668403706
1787895306952393314,-0.082,,,,1787895306952393314,1.1676100582
1787895306960090190,-0.106,,,,1787895306960090190,1.1683797458
1787895306967787066,-0.014,,,,1787895306967787066,1.1691494334
1787895306975483942,-0.097,,,,1787895306975483942,1.169919121
1787895306983180818,-0.165,,,,1787895306983180818,1.1706888086
1787895306990877694,-0.024,,,,1787895306990877694,1.1714584962
1787895306998574570,-0.034,,,,1787895306998574570,1.1722281838
1787895307006271446,-0.077,,,,1787895307006271446,1.1729978714
1787895307013968322,0.046,,,,1787895307013968322,1.173767559
1787895307021665198,0.116,,,,1787895307021665198,1.1745372466
1787895307029362074,0.211,,,,1787895307029362074,1.1753069342
1787895307037058950,0.269,,,,1787895307037058950,1.1760766218
1787895307044755826,0.119,,,,1787895307044755826,1.1768463094
1787895307052452702,0.043,,,,1787895307052452702,1.177615997
1787895307060149578,0.196,,,,1787895307060149578,1.1783856846
1787895307067846454,0.301,,,,1787895307067846454,1.1791553722
1787895307075543364,0.138,102.0,556.0,,1787895307075543364,1.1799250632
1787895307083239892,-0.048,,555.0,,1787895307083239892,1.180694716
1787895307090936420,0.048,,,,1787895307090936420,1.1814643688
1787895307098632948,0.25,,,,1787895307098632948,1.1822340216
1787895307106329476,0.199,,,,1787895307106329476,1.1830036744
1787895307114026004,0.024,,,,1787895307114026004,1.1837733272
1787895307121722532,-0.031,,,,1787895307121722532,1.18454298
1787895307129419060,-0.08,,,,1787895307129419060,1.1853126328
1787895307137115588,-0.136,,,,1787895307137115588,1.1860822856
1787895307144812116,-0.162,,,,1787895307144812116,1.1868519384
1787895307152508644,-0.187,,,,1787895307152508644,1.1876215912
1787895307160205172,-0.109,,,,1787895307160205172,1.188391244
1787895307167901700,0.019,,,,1787895307167901700,1.1891608968
1787895307175598228,0.007,,,,1787895307175598228,1.1899305496
1787895307183294756,-0.077,,,,1787895307183294756,1.1907002024
1787895307190991284,-0.08,,,,1787895307190991284,1.1914698552
1787895307198687812,-0.058,,,,1787895307198687812,1.192239508
1787895307206384340,-0.087,,,,1787895307206384340,1.1930091608
1787895307214080868,-0.133,,,,1787895307214080868,1.1937788136
1787895307221777396,-0.116,,,,1787895307221777396,1.1945484664
1787895307229473924,-0.017,,,,1787895307229473924,1.1953181192
1787895307237170452,0.002,,,,1787895307237170452,1.196087772
1787895307244866980,-0.085,,,,1787895307244866980,1.1968574248
1787895307252563508,-0.08,,,,1787895307252563508,1.1976270776
1787895307260260036,0.021,,,,1787895307260260036,1.1983967304
1787895307267956564,0.007,,,,1787895307267956564,1.1991663832
1787895307275653092,-0.072,,,,1787895307275653092,1.199936036
1787895307283349620,-0.034,,,,1787895307283349620,1.2007056888
1787895307291046148,-0.004,,,,1787895307291046148,1.2014753416
1787895307298742676,-0.075,,,,1787895307298742676,1.2022449944
1787895307306439204,-0.068,,,,1787895307306439204,1.2030146472
1787895307314135732,-0.029,,,,1787895307314135732,1.2037843
1787895307321832260,-0.055,,,,1787895307321832260,1.2045539528
1787895307329528788,-0.06,,,,1787895307329528788,1.2053236056
1787895307337225316,-0.07,,,,1787895307337225316,1.2060932584
1787895307344921844,-0.087,,,,1787895307344921844,1.2068629112
1787895307352618372,-0.065,,,,1787895307352618372,1.207632564
1787895307360314900,-0.08,,,,1787895307360314900,1.2084022168
1787895307368011428,-0.123,,,,1787895307368011428,1.2091718696
1787895307375707956,-0.114,,,,1787895307375707956,1.2099415224
1787895307383404484,-0.104,,,,1787895307383404484,1.2107111752
1787895307391101012,-0.128,,,,1787895307391101012,1.211480828
1787895307398797540,-0.138,,,,1787895307398797540,1.2122504808
1787895307406494068,-0.043,,,,1787895307406494068,1.2130201336
1787895307414190596,0.371,,,,1787895307414190596,1.2137897864
1787895307421887124,1.008,,,,1787895307421887124,1.2145594392
1787895307429583652,1.149,,,,1787895307429583652,1.215329092
1787895307437280180,0.405,,,,1787895307437280180,1.2160987448
1787895307444976708,-0.49,,,,1787895307444976708,1.2168683976
1787895307452673236,-0.738,,,,1787895307452673236,1.2176380504
1787895307460369764,-0.548,,,,1787895307460369764,1.2184077032
1787895307468066292,-0.408,,,,1787895307468066292,1.219177356
1787895307475762820,-0.262,,,,1787895307475762820,1.2199470088
1787895307483459348,-0.082,,,,1787895307483459348,1.2207166616
1787895307491155876,-0.07,,,,1787895307491155876,1.2214863144
1787895307498852404,-0.087,,,,1787895307498852404,1.2222559672
1787895307506548932,-0.038,,,,1787895307506548932,1.22302562
1787895307514245460,-0.055,,,,1787895307514245460,1.2237952728
1787895307521941988,-0.075,,,,1787895307521941988,1.2245649256
1787895307529638516,-0.082,,,,1787895307529638516,1.2253345784
1787895307537335044,-0.15,,,,1787895307537335044,1.2261042312
1787895307545031572,-0.111,,,,1787895307545031572,1.226873884
1787895307552728100,0.036,,,,1787895307552728100,1.2276435368
1787895307560424628,0.072,,,,1787895307560424628,1.2284131896
1787895307568121156,0.06,,,,1787895307568121156,1.2291828424
1787895307575817684,0.075,,,,1787895307575817684,1.2299524952
1787895307583514212,0.055,,,,1787895307583514212,1.230722148
1787895307591210740,0.043,,,,1787895307591210740,1.2314918008
1787895307598907268,0.111,,,,1787895307598907268,1.2322614536
1787895307606603796,0.162,,,,1787895307606603796,1.2330311064
1787895307614300324,0.099,,,,1787895307614300324,1.2338007592
1787895307621996852,0.097,,,,1787895307621996852,1.234570412
1787895307629693380,0.162,,,,1787895307629693380,1.2353400648
1787895307637389920,0.128,,,,1787895307637389920,1.2361097188
1787895307645086726,0.053,,,,1787895307645086726,1.2368793994
1787895307652783532,0.029,,,,1787895307652783532,1.23764908
1787895307660480338,-0.014,,,,1787895307660480338,1.2384187606
1787895307668177144,-0.167,,,,1787895307668177144,1.2391884412
1787895307675873950,-0.235,,,,1787895307675873950,1.2399581218
1787895307683570756,-0.082,,,,1787895307683570756,1.2407278024
1787895307691267562,-0.06,,,,1787895307691267562,1.241497483
1787895307698964368,-0.223,,,,1787895307698964368,1.2422671636
1787895307706661174,-0.208,,,,1787895307706661174,1.2430368442
1787895307714357980,-0.136,,,,1787895307714357980,1.2438065248
1787895307722054786,-0.247,,,,1787895307722054786,1.2445762054
1787895307729751592,-0.262,,,,1787895307729751592,1.245345886
1787895307737448398,-0.106,,,,1787895307737448398,1.2461155666
1787895307745145204,-0.128,,,,1787895307745145204,1.2468852472
1787895307752842010,-0.204,,,,1787895307752842010,1.2476549278
1787895307760538816,-0.102,,,,1787895307760538816,1.2484246084
1787895307768235622,-0.087,,,,1787895307768235622,1.249194289
1787895307775932428,-0.223,,,,1787895307775932428,1.2499639696
1787895307783629234,-0.208,,,,1787895307783629234,1.2507336502
1787895307791326040,-0.048,,,,1787895307791326040,1.2515033308
1787895307799022846,-0.07,,,,1787895307799022846,1.2522730114
1787895307806719652,-0.211,,,,1787895307806719652,1.253042692
1787895307814416458,-0.194,,,,1787895307814416458,1.2538123726
1787895307822113264,-0.174,,,,1787895307822113264,1.2545820532
1787895307829810070,-0.24,,,,1787895307829810070,1.2553517338
1787895307837506876,-0.16,,,,1787895307837506876,1.2561214144
1787895307845203682,-0.087,,,,1787895307845203682,1.256891095
1787895307852900488,-0.179,,,,1787895307852900488,1.2576607756
1787895307860597294,-0.174,,,,1787895307860597294,1.2584304562
1787895307868294100,-0.082,,,,1787895307868294100,1.2592001368
1787895307875990906,-0.116,,,,1787895307875990906,1.2599698174
1787895307883687712,-0.17,,,,1787895307883687712,1.260739498
1787895307891384518,-0.145,,,,1787895307891384518,1.2615091786
1787895307899081324,-0.148,,,,1787895307899081324,1.2622788592
1787895307906778130,-0.174,,,,1787895307906778130,1.2630485398
1787895307914474936,-0.172,,,,1787895307914474936,1.2638182204
1787895307922171742,-0.174,,,,1787895307922171742,1.264587901
1787895307929868548,-0.174,,,,1787895307929868548,1.2653575816
1787895307937565354,-0.119,,,,1787895307937565354,1.2661272622
1787895307945262160,-0.106,,,,1787895307945262160,1.2668969428
1787895307952958966,-0.238,,,,1787895307952958966,1.2676666234
1787895307960655772,-0.272,,,,1787895307960655772,1.268436304
1787895307968352578,0.111,,,,1787895307968352578,1.2692059846
1787895307976049384,0.8160000000000001,,,,1787895307976049384,1.2699756652
1787895307983746190,1.192,,,,1787895307983746190,1.2707453458
1787895307991442996,0.6970000000000001,,,,1787895307991442996,1.2715150264
1787895307999139802,-0.225,,,,1787895307999139802,1.272284707
1787895308006836608,-0.709,,,,1787895308006836608,1.2730543876
1787895308014533414,-0.641,,,,1787895308014533414,1.2738240682
1787895308022230220,-0.434,,,,1787895308022230220,1.2745937488
1787895308029927026,-0.281,,,,1787895308029927026,1.2753634294
1787895308037623832,-0.138,,,,1787895308037623832,1.27613311
1787895308045320638,-0.036,,,,1787895308045320638,1.2769027906
1787895308053017444,-0.021,,,,1787895308053017444,1.2776724712
1787895308060714250,-0.041,,,,1787895308060714250,1.2784421518
1787895308068411056,-0.021,,,,1787895308068411056,1.2792118324
1787895308076107862,0.019,,,,1787895308076107862,1.279981513
1787895308083804668,0.031,,,,1787895308083804668,1.2807511936
1787895308091501474,0.034,,,,1787895308091501474,1.2815208742
1787895308099198280,0.075,,,,1787895308099198280,1.2822905548
1787895308106895086,0.104,,,,1787895308106895086,1.2830602354
1787895308114591892,0.102,,,,1787895308114591892,1.283829916
1787895308122288698,0.143,,,,1787895308122288698,1.2845995966
1787895308129985504,0.204,,,,1787895308129985504,1.2853692772
1787895308137682310,0.196,,,,1787895308137682310,1.2861389578
1787895308145379116,0.177,,,,1787895308145379116,1.2869086384
1787895308153075922,0.211,,,,1787895308153075922,1.287678319
1787895308160772728,0.257,,,,1787895308160772728,1.2884479996
1787895308168469534,0.291,,,,1787895308168469534,1.2892176802
1787895308176166340,0.291,,,,1787895308176166340,1.2899873608
1787895308183863146,0.235,,,,1787895308183863146,1.2907570414
1787895308191559952,0.225,,,,1787895308191559952,1.291526722
1787895308199256818,0.235,104.0,555.0,,1787895308199256818,1.2922964086
1787895308206954321,0.155,,558.0,,1787895308206954321,1.2930661589
1787895308214651824,0.109,,,,1787895308214651824,1.2938359092
1787895308222349327,0.099,,,,1787895308222349327,1.2946056595
1787895308230046830,0.026,,,,1787895308230046830,1.2953754098
1787895308237744333,-0.012,,,,1787895308237744333,1.2961451601
1787895308245441836,-0.012,,,,1787895308245441836,1.2969149104
1787895308253139339,-0.019,,,,1787895308253139339,1.2976846607
1787895308260836842,-0.014,,,,1787895308260836842,1.298454411
1787895308268534345,-0.014,,,,1787895308268534345,1.2992241613
1787895308276231848,-0.048,,,,1787895308276231848,1.2999939116
1787895308283929351,-0.021,,,,1787895308283929351,1.3007636619
1787895308291626854,0.046,,,,1787895308291626854,1.3015334122
1787895308299324357,0.021,,,,1787895308299324357,1.3023031625
1787895308307021860,-0.004,,,,1787895308307021860,1.3030729128
1787895308314719363,0.031,,,,1787895308314719363,1.3038426631
1787895308322416866,0.012,,,,1787895308322416866,1.3046124134
1787895308330114369,-0.024,,,,1787895308330114369,1.3053821637
1787895308337811872,0.036,,,,1787895308337811872,1.306151914
1787895308345509375,0.116,,,,1787895308345509375,1.3069216643
1787895308353206878,0.104,,,,1787895308353206878,1.3076914146
1787895308360904381,0.046,,,,1787895308360904381,1.3084611649
1787895308368601884,-0.014,,,,1787895308368601884,1.3092309152
1787895308376299387,0.002,,,,1787895308376299387,1.3100006655
1787895308383996890,0.121,,,,1787895308383996890,1.3107704158
1787895308391694393,0.133,,,,1787895308391694393,1.3115401661
1787895308399391896,0.002,,,,1787895308399391896,1.3123099164
1787895308407089399,-0.06,,,,1787895308407089399,1.3130796667
1787895308414786902,0.038,,,,1787895308414786902,1.313849417
1787895308422484405,0.109,,,,1787895308422484405,1.3146191673
1787895308430181908,0.041,,,,1787895308430181908,1.3153889176
1787895308437879411,-0.043,,,,1787895308437879411,1.3161586679
1787895308445576914,-0.053,,,,1787895308445576914,1.3169284182
1787895308453274417,0.092,,,,1787895308453274417,1.3176981685
1787895308460971920,0.189,,,,1787895308460971920,1.3184679188
1787895308468669423,0.002,,,,1787895308468669423,1.3192376691
1787895308476366926,-0.114,,,,1787895308476366926,1.3200074194
1787895308484064429,0.004,,,,1787895308484064429,1.3207771697
1787895308491761932,0.017,,,,1787895308491761932,1.32154692
1787895308499459435,-0.055,,,,1787895308499459435,1.3223166703
1787895308507156938,-0.094,,,,1787895308507156938,1.3230864206
1787895308514854441,-0.106,,,,1787895308514854441,1.3238561709
1787895308522551944,0.242,,,,1787895308522551944,1.3246259212
1787895308530249447,0.91,,,,1787895308530249447,1.3253956715
1787895308537946950,1.241,,,,1787895308537946950,1.3261654218
1787895308545644453,0.876,,,,1787895308545644453,1.3269351721
1787895308553341956,0.0,,,,1787895308553341956,1.3277049224
1787895308561039459,-0.655,,,,1787895308561039459,1.3284746727
1787895308568736962,-0.551,,,,1787895308568736962,1.329244423
1787895308576434465,-0.293,,,,1787895308576434465,1.3300141733
1787895308584131968,-0.264,,,,1787895308584131968,1.3307839236
1787895308591829471,-0.104,,,,1787895308591829471,1.3315536739
1787895308599526974,-0.012,,,,1787895308599526974,1.3323234242
1787895308607224477,-0.053,,,,1787895308607224477,1.3330931745
1787895308614921980,0.048,,,,1787895308614921980,1.3338629248
1787895308622619483,0.046,,,,1787895308622619483,1.3346326751
1787895308630316986,-0.085,,,,1787895308630316986,1.3354024254
1787895308638014489,0.004,,,,1787895308638014489,1.3361721757
1787895308645711992,0.182,,,,1787895308645711992,1.336941926
1787895308653409495,0.131,,,,1787895308653409495,1.3377116763
1787895308661106998,0.036,,,,1787895308661106998,1.3384814266
1787895308668804501,0.104,,,,1787895308668804501,1.3392511769
1787895308676502004,0.119,,,,1787895308676502004,1.3400209272
1787895308684199507,0.026,,,,1787895308684199507,1.3407906775
1787895308691897010,0.114,,,,1787895308691897010,1.3415604278
1787895308699594513,0.281,,,,1787895308699594513,1.3423301781
1787895308707292016,0.225,,,,1787895308707292016,1.3430999284
1787895308714989519,0.157,,,,1787895308714989519,1.3438696787
1787895308722687022,0.213,,,,1787895308722687022,1.344639429
1787895308730384525,0.213,,,,1787895308730384525,1.3454091793
1787895308738082028,0.157,,,,1787895308738082028,1.3461789296
1787895308745779531,0.077,,,,1787895308745779531,1.3469486799
1787895308753477034,0.068,,,,1787895308753477034,1.3477184302
1787895308761174579,0.177,,,,1787895308761174579,1.3484881847
1787895308768870828,0.182,,,,1787895308768870828,1.3492578096
1787895308776567077,0.012,,,,1787895308776567077,1.3500274345
1787895308784263326,-0.109,,,,1787895308784263326,1.3507970594
1787895308791959575,-0.087,,,,1787895308791959575,1.3515666843
1787895308799655824,-0.089,,,,1787895308799655824,1.3523363092
1787895308807352073,-0.143,,,,1787895308807352073,1.3531059341
1787895308815048322,-0.121,,,,1787895308815048322,1.353875559
1787895308822744571,-0.089,,,,1787895308822744571,1.3546451839
1787895308830440820,-0.119,,,,1787895308830440820,1.3554148088
1787895308838137069,-0.136,,,,1787895308838137069,1.3561844337
1787895308845833318,-0.116,,,,1787895308845833318,1.3569540586
1787895308853529567,-0.089,,,,1787895308853529567,1.3577236835
1787895308861225816,-0.104,,,,1787895308861225816,1.3584933084
1787895308868922065,-0.136,,,,1787895308868922065,1.3592629333
1787895308876618314,-0.089,,,,1787895308876618314,1.3600325582
1787895308884314563,-0.012,,,,1787895308884314563,1.3608021831
1787895308892010812,-0.029,,,,1787895308892010812,1.361571808
1787895308899707061,-0.07,,,,1787895308899707061,1.3623414329
1787895308907403310,-0.053,,,,1787895308907403310,1.3631110578
1787895308915099559,-0.043,,,,1787895308915099559,1.3638806827
1787895308922795808,-0.055,,,,1787895308922795808,1.3646503076
1787895308930492057,-0.08,,,,1787895308930492057,1.3654199325
1787895308938188306,-0.131,,,,1787895308938188306,1.3661895574
1787895308945884555,-0.126,,,,1787895308945884555,1.3669591823
1787895308953580804,-0.055,,,,1787895308953580804,1.3677288072
1787895308961277053,-0.077,,,,1787895308961277053,1.3684984321
1787895308968973302,-0.182,,,,1787895308968973302,1.369268057
1787895308976669551,-0.136,,,,1787895308976669551,1.3700376819
1787895308984365800,0.009,,,,1787895308984365800,1.3708073068
1787895308992062049,-0.036,,,,1787895308992062049,1.3715769317
1787895308999758298,-0.167,,,,1787895308999758298,1.3723465566
1787895309007454547,-0.131,,,,1787895309007454547,1.3731161815
1787895309015150796,-0.058,,,,1787895309015150796,1.3738858064
1787895309022847045,-0.128,,,,1787895309022847045,1.3746554313
1787895309030543294,-0.17,,,,1787895309030543294,1.3754250562
1787895309038239543,-0.08,,,,1787895309038239543,1.3761946811
1787895309045935792,-0.085,,,,1787895309045935792,1.376964306
1787895309053632041,-0.133,,,,1787895309053632041,1.3777339309
1787895309061328290,-0.119,,,,1787895309061328290,1.3785035558
1787895309069024539,-0.211,,,,1787895309069024539,1.3792731807
1787895309076720788,-0.218,,,,1787895309076720788,1.3800428056
1787895309084417037,0.228,,,,1787895309084417037,1.3808124305
1787895309092113286,0.92,,,,1787895309092113286,1.3815820554
1787895309099809535,1.127,,,,1787895309099809535,1.3823516803
1787895309107505784,0.422,,,,1787895309107505784,1.3831213052
1787895309115202033,-0.485,,,,1787895309115202033,1.3838909301
1787895309122898282,-0.733,,,,1787895309122898282,1.384660555
1787895309130594531,-0.544,,,,1787895309130594531,1.3854301799
1787895309138290780,-0.403,,,,1787895309138290780,1.3861998048
1787895309145987029,-0.245,,,,1787895309145987029,1.3869694297
1787895309153683278,-0.082,,,,1787895309153683278,1.3877390546
1787895309161379527,-0.082,,,,1787895309161379527,1.3885086795
1787895309169075776,-0.128,,,,1787895309169075776,1.3892783044
1787895309176772025,-0.094,,,,1787895309176772025,1.3900479293
1787895309184468274,-0.063,,,,1787895309184468274,1.3908175542
1787895309192164523,-0.051,,,,1787895309192164523,1.3915871791
1787895309199860772,-0.009,,,,1787895309199860772,1.392356804
1787895309207557021,0.024,,,,1787895309207557021,1.3931264289
1787895309215253270,0.029,,,,1787895309215253270,1.3938960538
1787895309222949519,0.009,,,,1787895309222949519,1.3946656787
1787895309230645768,-0.026,,,,1787895309230645768,1.3954353036
1787895309238342017,-0.007,,,,1787895309238342017,1.3962049285
1787895309246038266,0.116,,,,1787895309246038266,1.3969745534
1787895309253734515,0.208,,,,1787895309253734515,1.3977441783
1787895309261430764,0.167,,,,1787895309261430764,1.3985138032
1787895309269127013,0.123,,,,1787895309269127013,1.3992834281
1787895309276823262,0.148,,,,1787895309276823262,1.400053053
1787895309284519511,0.162,,,,1787895309284519511,1.4008226779
1787895309292215760,0.109,,,,1787895309292215760,1.4015923028
1787895309299912009,0.089,,,,1787895309299912009,1.4023619277
1787895309307608258,0.17,,,,1787895309307608258,1.4031315526
1787895309315304507,0.145,,,,1787895309315304507,1.4039011775
1787895309323000786,0.026,105.0,554.0,,1787895309323000786,1.4046708054
1787895309330697592,0.014,,556.0,,1787895309330697592,1.405440486
1787895309338394398,-0.017,,,,1787895309338394398,1.4062101666
1787895309346091204,-0.131,,,,1787895309346091204,1.4069798472
1787895309353788010,-0.119,,,,1787895309353788010,1.4077495278
1787895309361484816,-0.046,,,,1787895309361484816,1.4085192084
1787895309369181622,-0.085,,,,1787895309369181622,1.409288889
1787895309376878428,-0.106,,,,1787895309376878428,1.4100585696
1787895309384575234,-0.089,,,,1787895309384575234,1.4108282502
1787895309392272040,-0.114,,,,1787895309392272040,1.4115979308
1787895309399968846,-0.106,,,,1787895309399968846,1.4123676114
1787895309407665652,-0.106,,,,1787895309407665652,1.413137292
1787895309415362458,-0.143,,,,1787895309415362458,1.4139069726
1787895309423059264,-0.041,,,,1787895309423059264,1.4146766532
1787895309430756070,0.034,,,,1787895309430756070,1.4154463338
1787895309438452876,-0.036,,,,1787895309438452876,1.4162160144
1787895309446149682,0.024,,,,1787895309446149682,1.416985695
1787895309453846488,-0.009,,,,1787895309453846488,1.4177553756
1787895309461543294,-0.172,,,,1787895309461543294,1.4185250562
1787895309469240100,-0.087,,,,1787895309469240100,1.4192947368
1787895309476936906,0.102,,,,1787895309476936906,1.4200644174
1787895309484633712,0.121,,,,1787895309484633712,1.420834098
1787895309492330518,-0.051,,,,1787895309492330518,1.4216037786
1787895309500027324,-0.233,,,,1787895309500027324,1.4223734592
1787895309507724130,-0.162,,,,1787895309507724130,1.4231431398
1787895309515420936,0.017,,,,1787895309515420936,1.4239128204
1787895309523117742,-0.021,,,,1787895309523117742,1.424682501
1787895309530814548,-0.111,,,,1787895309530814548,1.4254521816
1787895309538511354,-0.053,,,,1787895309538511354,1.4262218622
1787895309546208160,-0.058,,,,1787895309546208160,1.4269915428
1787895309553904966,-0.17,,,,1787895309553904966,1.4277612234
1787895309561601772,-0.143,,,,1787895309561601772,1.428530904
1787895309569298578,0.021,,,,1787895309569298578,1.4293005846
1787895309576995384,-0.007,,,,1787895309576995384,1.4300702652
1787895309584692190,-0.191,,,,1787895309584692190,1.4308399458
1787895309592388996,-0.187,,,,1787895309592388996,1.4316096264
1787895309600085802,-0.109,,,,1787895309600085802,1.432379307
1787895309607782608,-0.191,,,,1787895309607782608,1.4331489876
1787895309615479414,-0.245,,,,1787895309615479414,1.4339186682
1787895309623176220,-0.174,,,,1787895309623176220,1.4346883488
1787895309630873026,-0.177,,,,1787895309630873026,1.4354580294
1787895309638569832,0.082,,,,1787895309638569832,1.43622771
1787895309646266638,0.835,,,,1787895309646266638,1.4369973906
1787895309653963444,1.127,,,,1787895309653963444,1.4377670712
1787895309661660250,0.536,,,,1787895309661660250,1.4385367518
1787895309669357056,-0.16,,,,1787895309669357056,1.4393064324
1787895309677053862,-0.614,,,,1787895309677053862,1.440076113
1787895309684750668,-0.765,,,,1787895309684750668,1.4408457936
1787895309692447474,-0.517,,,,1787895309692447474,1.4416154742
1787895309700144280,-0.264,,,,1787895309700144280,1.4423851548
1787895309707841086,-0.257,,,,1787895309707841086,1.4431548354
1787895309715537892,-0.17,,,,1787895309715537892,1.443924516
1787895309723234698,-0.024,,,,1787895309723234698,1.4446941966
1787895309730931504,-0.024,,,,1787895309730931504,1.4454638772
1787895309738628310,-0.089,,,,1787895309738628310,1.4462335578
1787895309746325116,-0.235,,,,1787895309746325116,1.4470032384
1787895309754021922,-0.184,,,,1787895309754021922,1.447772919
1787895309761718728,0.155,,,,1787895309761718728,1.4485425996
1787895309769415534,0.145,,,,1787895309769415534,1.4493122802
1787895309777112340,-0.094,,,,1787895309777112340,1.4500819608
1787895309784809146,-0.021,,,,1787895309784809146,1.4508516414
1787895309792505952,0.085,,,,1787895309792505952,1.451621322
1787895309800202758,-0.014,,,,1787895309800202758,1.4523910026
1787895309807899564,0.026,,,,1787895309807899564,1.4531606832
1787895309815596370,0.301,,,,1787895309815596370,1.4539303638
1787895309823293176,0.318,,,,1787895309823293176,1.4547000444
1787895309830989982,0.031,,,,1787895309830989982,1.455469725
1787895309838686788,-0.026,,,,1787895309838686788,1.4562394056
1787895309846383594,0.187,,,,1787895309846383594,1.4570090862
1787895309854080400,0.235,,,,1787895309854080400,1.4577787668
1787895309861777206,0.065,,,,1787895309861777206,1.4585484474
1787895309869474012,0.017,,,,1787895309869474012,1.459318128
1787895309877170818,0.097,,,,1787895309877170818,1.4600878086
1787895309884867682,0.046,,,,1787895309884867682,1.460857495
1787895309892564210,-0.07,,,,1787895309892564210,1.4616271478
1787895309900260738,-0.097,,,,1787895309900260738,1.4623968006
1787895309907957266,-0.038,,,,1787895309907957266,1.4631664534
1787895309915653794,-0.012,,,,1787895309915653794,1.4639361062
1787895309923350322,-0.143,,,,1787895309923350322,1.464705759
1787895309931046850,-0.242,,,,1787895309931046850,1.4654754118
1787895309938743378,-0.138,,,,1787895309938743378,1.4662450646
1787895309946439906,-0.07,,,,1787895309946439906,1.4670147174
1787895309954136434,-0.133,,,,1787895309954136434,1.4677843702
1787895309961832962,-0.177,,,,1787895309961832962,1.468554023
1787895309969529490,-0.187,,,,1787895309969529490,1.4693236758
1787895309977226018,-0.121,,,,1787895309977226018,1.4700933286
1787895309984922546,-0.009,,,,1787895309984922546,1.4708629814
1787895309992619074,-0.06,,,,1787895309992619074,1.4716326342
1787895310000315602,-0.148,,,,1787895310000315602,1.472402287
1787895310008012130,-0.109,,,,1787895310008012130,1.4731719398
1787895310015708658,-0.075,,,,1787895310015708658,1.4739415926
1787895310023405186,-0.08,,,,1787895310023405186,1.4747112454
1787895310031101714,-0.07,,,,1787895310031101714,1.4754808982
