UNIX Timestamp,ECG,HR,RR,Marker,time,norm_time
1776408532484082266,0.152,75.0,,,1776408532484082266,0.0
1776408532491774056,0.309,,,,1776408532491774056,0.000769179
1776408532499465846,0.213,,,,1776408532499465846,0.001538358
1776408532507157636,0.238,,,,1776408532507157636,0.002307537
1776408532514849426,0.296,,,,1776408532514849426,0.003076716
1776408532522541216,0.255,,,,1776408532522541216,0.003845895
1776408532530233006,0.247,,,,1776408532530233006,0.004615074
1776408532537924796,0.277,,,,1776408532537924796,0.005384253
1776408532545616586,0.287,,,,1776408532545616586,0.006153432
1776408532553308376,0.294,,,,1776408532553308376,0.006922611
1776408532561000166,0.296,,,,1776408532561000166,0.00769179
1776408532568691956,0.289,,,,1776408532568691956,0.008460969
1776408532576383746,0.301,,,,1776408532576383746,0.009230148
1776408532584075536,0.321,,,,1776408532584075536,0.009999327
1776408532591767326,0.336,,,,1776408532591767326,0.010768506
1776408532599459116,0.336,,,,1776408532599459116,0.011537685
1776408532607150906,0.341,,,,1776408532607150906,0.012306864
1776408532614842696,0.358,,,,1776408532614842696,0.013076043
1776408532622534486,0.382,,,,1776408532622534486,0.013845222
1776408532630226276,0.399,,,,1776408532630226276,0.014614401
1776408532637918066,0.399,,,,1776408532637918066,0.01538358
1776408532645609856,0.399,,,,1776408532645609856,0.016152759
1776408532653301646,0.392,,,,1776408532653301646,0.016921938
1776408532660993436,0.358,,,,1776408532660993436,0.017691117
1776408532668685226,0.331,,,,1776408532668685226,0.018460296
1776408532676377016,0.306,,,,1776408532676377016,0.019229475
1776408532684068806,0.264,,,,1776408532684068806,0.019998654
1776408532691760596,0.223,,,,1776408532691760596,0.020767833
1776408532699452386,0.179,,,,1776408532699452386,0.021537012
1776408532707144176,0.122,,,,1776408532707144176,0.022306191
1776408532714835966,0.085,,,,1776408532714835966,0.02307537
1776408532722527756,0.063,,,,1776408532722527756,0.023844549
1776408532730219546,0.036,,,,1776408532730219546,0.024613728
1776408532737911336,-0.002,,,,1776408532737911336,0.025382907
1776408532745603126,-0.019,,,,1776408532745603126,0.026152086
1776408532753294916,-0.004,,,,1776408532753294916,0.026921265
1776408532760986706,0.0,,,,1776408532760986706,0.027690444
1776408532768678496,-0.014,,,,1776408532768678496,0.028459623
1776408532776370286,-0.022,,,,1776408532776370286,0.029228802
1776408532784062076,-0.022,,,,1776408532784062076,0.029997981
1776408532791753866,-0.022,,,,1776408532791753866,0.03076716
1776408532799445656,-0.017,,,,1776408532799445656,0.031536339
1776408532807137446,-0.009,,,,1776408532807137446,0.032305518
1776408532814829236,0.0,,,,1776408532814829236,0.033074697
1776408532822521026,0.012,,,,1776408532822521026,0.033843876
1776408532830212816,0.019,,,,1776408532830212816,0.034613055
1776408532837904606,0.014,,,,1776408532837904606,0.035382234
1776408532845596396,0.017,,,,1776408532845596396,0.036151413
1776408532853288186,0.022,,,,1776408532853288186,0.036920592
1776408532860979976,0.022,,,,1776408532860979976,0.037689771
1776408532868671766,0.022,,,,1776408532868671766,0.03845895
1776408532876363556,0.017,,,,1776408532876363556,0.039228129
1776408532884055346,0.0,,,,1776408532884055346,0.039997308
1776408532891747136,-0.002,,,,1776408532891747136,0.040766487
1776408532899438926,0.004,,,,1776408532899438926,0.041535666
1776408532907130716,0.004,,,,1776408532907130716,0.042304845
1776408532914822506,0.0,,,,1776408532914822506,0.043074024
1776408532922514296,0.002,,,,1776408532922514296,0.043843203
1776408532930206086,0.009,,,,1776408532930206086,0.044612382
1776408532937897876,0.002,,,,1776408532937897876,0.045381561
1776408532945589666,-0.004,,,,1776408532945589666,0.04615074
1776408532953281456,0.0,,,,1776408532953281456,0.046919919
1776408532960973246,0.007,,,,1776408532960973246,0.047689098
1776408532968665036,0.017,,,,1776408532968665036,0.048458277
1776408532976356826,0.019,,,,1776408532976356826,0.049227456
1776408532984048616,0.019,,,,1776408532984048616,0.049996635
1776408532991740406,0.022,,,,1776408532991740406,0.050765814
1776408532999432196,0.026,,,,1776408532999432196,0.051534993
1776408533007123986,0.022,,,,1776408533007123986,0.052304172
1776408533014815776,0.002,,,,1776408533014815776,0.053073351
1776408533022507566,0.002,,777.0,,1776408533022507566,0.05384253
1776408533030199356,0.041,,,,1776408533030199356,0.054611709
1776408533037891146,0.066,,,,1776408533037891146,0.055380888
1776408533045582948,0.049,,,,1776408533045582948,0.0561500682
1776408533053274807,0.034,,,,1776408533053274807,0.0569192541
1776408533060966666,0.039,,,,1776408533060966666,0.05768844
1776408533068658525,0.061,,,,1776408533068658525,0.0584576259
1776408533076350384,0.093,,,,1776408533076350384,0.0592268118
1776408533084042243,0.103,,,,1776408533084042243,0.0599959977
1776408533091734102,0.098,,,,1776408533091734102,0.0607651836
1776408533099425961,0.098,,,,1776408533099425961,0.0615343695
1776408533107117820,0.078,,,,1776408533107117820,0.0623035554
1776408533114809679,0.039,,,,1776408533114809679,0.0630727413
1776408533122501538,0.029,,,,1776408533122501538,0.0638419272
1776408533130193397,0.044,,,,1776408533130193397,0.0646111131
1776408533137885256,0.049,,,,1776408533137885256,0.065380299
1776408533145577115,0.051,,,,1776408533145577115,0.0661494849
1776408533153268974,0.056,,,,1776408533153268974,0.0669186708
1776408533160960833,0.058,,,,1776408533160960833,0.0676878567
1776408533168652692,0.056,,,,1776408533168652692,0.0684570426
1776408533176344551,0.149,,,,1776408533176344551,0.0692262285
1776408533184036410,0.5690000000000001,,,,1776408533184036410,0.0699954144
1776408533191728269,1.288,,,,1776408533191728269,0.0707646003
1776408533199420128,1.418,,,,1776408533199420128,0.0715337862
1776408533207111987,0.058,,,,1776408533207111987,0.0723029721
1776408533214803846,-1.599,,,,1776408533214803846,0.073072158
1776408533222495705,-1.621,,,,1776408533222495705,0.0738413439
1776408533230187564,-0.6990000000000001,,,,1776408533230187564,0.0746105298
1776408533237879423,-0.309,,,,1776408533237879423,0.0753797157
1776408533245571282,-0.09,,,,1776408533245571282,0.0761489016
1776408533253263141,0.233,,,,1776408533253263141,0.0769180875
1776408533260955000,0.264,,,,1776408533260955000,0.0776872734
1776408533268646859,0.193,,,,1776408533268646859,0.0784564593
1776408533276338718,0.255,,,,1776408533276338718,0.0792256452
1776408533284030577,0.269,,,,1776408533284030577,0.0799948311
1776408533291722436,0.223,,,,1776408533291722436,0.080764017
1776408533299414295,0.24,,,,1776408533299414295,0.0815332029
1776408533307106154,0.272,,,,1776408533307106154,0.0823023888
1776408533314798013,0.269,,,,1776408533314798013,0.0830715747
1776408533322489872,0.267,,,,1776408533322489872,0.0838407606
1776408533330181731,0.284,,,,1776408533330181731,0.0846099465
1776408533337873590,0.296,,,,1776408533337873590,0.0853791324
1776408533345565449,0.296,,,,1776408533345565449,0.0861483183
1776408533353257308,0.309,,,,1776408533353257308,0.0869175042
1776408533360949167,0.323,,,,1776408533360949167,0.0876866901
1776408533368641026,0.333,,,,1776408533368641026,0.088455876
1776408533376332885,0.345,,,,1776408533376332885,0.0892250619
1776408533384024744,0.365,,,,1776408533384024744,0.0899942478
1776408533391716603,0.377,,,,1776408533391716603,0.0907634337
1776408533399408462,0.377,,,,1776408533399408462,0.0915326196
1776408533407100321,0.375,,,,1776408533407100321,0.0923018055
1776408533414792180,0.385,,,,1776408533414792180,0.0930709914
1776408533422484039,0.382,,,,1776408533422484039,0.0938401773
1776408533430175898,0.355,,,,1776408533430175898,0.0946093632
1776408533437867757,0.321,,,,1776408533437867757,0.0953785491
1776408533445559616,0.296,,,,1776408533445559616,0.096147735
1776408533453251475,0.264,,,,1776408533453251475,0.0969169209
1776408533460943334,0.211,,,,1776408533460943334,0.0976861068
1776408533468635193,0.164,,,,1776408533468635193,0.0984552927
1776408533476327052,0.132,,,,1776408533476327052,0.0992244786
1776408533484018911,0.098,,,,1776408533484018911,0.0999936645
1776408533491710770,0.053,,,,1776408533491710770,0.1007628504
1776408533499402629,0.026,,,,1776408533499402629,0.1015320363
1776408533507094488,0.019,,,,1776408533507094488,0.1023012222
1776408533514786347,0.007,,,,1776408533514786347,0.1030704081
1776408533522478206,-0.004,,,,1776408533522478206,0.103839594
1776408533530170065,0.002,,,,1776408533530170065,0.1046087799
1776408533537861924,0.009,,,,1776408533537861924,0.1053779658
1776408533545553783,0.009,,,,1776408533545553783,0.1061471517
1776408533553245642,0.017,,,,1776408533553245642,0.1069163376
1776408533560937501,0.014,,,,1776408533560937501,0.1076855235
1776408533568629360,0.017,,,,1776408533568629360,0.1084547094
1776408533576321219,0.036,,,,1776408533576321219,0.1092238953
1776408533584013078,0.044,,,,1776408533584013078,0.1099930812
1776408533591704937,0.044,,,,1776408533591704937,0.1107622671
1776408533599396796,0.056,,,,1776408533599396796,0.111531453
1776408533607088716,0.056,75.0,,,1776408533607088716,0.112300645
1776408533614780575,0.036,,,,1776408533614780575,0.1130698309
1776408533622472434,0.034,,,,1776408533622472434,0.1138390168
1776408533630164293,0.051,,,,1776408533630164293,0.1146082027
1776408533637856152,0.056,,,,1776408533637856152,0.1153773886
1776408533645548011,0.041,,,,1776408533645548011,0.1161465745
1776408533653239870,0.031,,,,1776408533653239870,0.1169157604
1776408533660931729,0.039,,,,1776408533660931729,0.1176849463
1776408533668623588,0.036,,,,1776408533668623588,0.1184541322
1776408533676315447,0.024,,,,1776408533676315447,0.1192233181
1776408533684007306,0.014,,,,1776408533684007306,0.119992504
1776408533691699165,0.004,,,,1776408533691699165,0.1207616899
1776408533699391024,0.0,,,,1776408533699391024,0.1215308758
1776408533707082883,-0.002,,,,1776408533707082883,0.1223000617
1776408533714774742,-0.007,,,,1776408533714774742,0.1230692476
1776408533722466601,0.007,,,,1776408533722466601,0.1238384335
1776408533730158460,0.019,,,,1776408533730158460,0.1246076194
1776408533737850319,0.014,,,,1776408533737850319,0.1253768053
1776408533745542178,0.009,,,,1776408533745542178,0.1261459912
1776408533753234037,0.017,,,,1776408533753234037,0.1269151771
1776408533760925896,0.019,,,,1776408533760925896,0.127684363
1776408533768617755,0.019,,,,1776408533768617755,0.1284535489
1776408533776309614,0.019,,,,1776408533776309614,0.1292227348
1776408533784001473,0.022,,,,1776408533784001473,0.1299919207
1776408533791693332,0.019,,,,1776408533791693332,0.1307611066
1776408533799385191,0.017,,,,1776408533799385191,0.1315302925
1776408533807077050,0.026,,,,1776408533807077050,0.1322994784
1776408533814768909,0.031,,,,1776408533814768909,0.1330686643
1776408533822460768,0.031,,,,1776408533822460768,0.1338378502
1776408533830152627,0.029,,,,1776408533830152627,0.1346070361
1776408533837844486,0.036,,,,1776408533837844486,0.135376222
1776408533845536345,0.058,,,,1776408533845536345,0.1361454079
1776408533853228204,0.078,,,,1776408533853228204,0.1369145938
1776408533860920063,0.083,,839.0,,1776408533860920063,0.1376837797
1776408533868611922,0.083,,,,1776408533868611922,0.1384529656
1776408533876303781,0.063,,,,1776408533876303781,0.1392221515
1776408533883995640,0.041,,,,1776408533883995640,0.1399913374
1776408533891687499,0.058,,,,1776408533891687499,0.1407605233
1776408533899379358,0.076,,,,1776408533899379358,0.1415297092
1776408533907071217,0.049,,,,1776408533907071217,0.1422988951
1776408533914763076,0.041,,,,1776408533914763076,0.143068081
1776408533922454935,0.066,,,,1776408533922454935,0.1438372669
1776408533930146794,0.063,,,,1776408533930146794,0.1446064528
1776408533937838653,0.049,,,,1776408533937838653,0.1453756387
1776408533945530512,0.056,,,,1776408533945530512,0.1461448246
1776408533953222371,0.188,,,,1776408533953222371,0.1469140105
1776408533960914230,0.679,,,,1776408533960914230,0.1476831964
1776408533968606089,1.371,,,,1776408533968606089,0.1484523823
1776408533976297948,1.263,,,,1776408533976297948,0.1492215682
1776408533983989807,-0.284,,,,1776408533983989807,0.1499907541
1776408533991681666,-1.732,,,,1776408533991681666,0.15075994
1776408533999373525,-1.442,,,,1776408533999373525,0.1515291259
1776408534007065384,-0.544,,,,1776408534007065384,0.1522983118
1776408534014757243,-0.255,,,,1776408534014757243,0.1530674977
1776408534022449102,-0.019,,,,1776408534022449102,0.1538366836
1776408534030140961,0.269,,,,1776408534030140961,0.1546058695
1776408534037832820,0.245,,,,1776408534037832820,0.1553750554
1776408534045524679,0.191,,,,1776408534045524679,0.1561442413
1776408534053216538,0.274,,,,1776408534053216538,0.1569134272
1776408534060908397,0.287,,,,1776408534060908397,0.1576826131
1776408534068600256,0.257,,,,1776408534068600256,0.158451799
1776408534076292115,0.279,,,,1776408534076292115,0.1592209849
1776408534083983974,0.294,,,,1776408534083983974,0.1599901708
1776408534091675833,0.287,,,,1776408534091675833,0.1607593567
1776408534099367692,0.291,,,,1776408534099367692,0.1615285426
1776408534107059551,0.299,,,,1776408534107059551,0.1622977285
1776408534114751410,0.306,,,,1776408534114751410,0.1630669144
1776408534122443269,0.338,,,,1776408534122443269,0.1638361003
1776408534130135128,0.35,,,,1776408534130135128,0.1646052862
1776408534137826987,0.341,,,,1776408534137826987,0.1653744721
1776408534145518846,0.35,,,,1776408534145518846,0.166143658
1776408534153210705,0.372,,,,1776408534153210705,0.1669128439
1776408534160902564,0.385,,,,1776408534160902564,0.1676820298
1776408534168594484,0.39,,,,1776408534168594484,0.1684512218
1776408534176286552,0.387,,,,1776408534176286552,0.1692204286
1776408534183978620,0.385,,,,1776408534183978620,0.1699896354
1776408534191670688,0.39,,,,1776408534191670688,0.1707588422
1776408534199362756,0.387,,,,1776408534199362756,0.171528049
1776408534207054824,0.372,,,,1776408534207054824,0.1722972558
1776408534214746892,0.338,,,,1776408534214746892,0.1730664626
1776408534222438960,0.289,,,,1776408534222438960,0.1738356694
1776408534230131028,0.247,,,,1776408534230131028,0.1746048762
1776408534237823096,0.193,,,,1776408534237823096,0.175374083
1776408534245515164,0.144,,,,1776408534245515164,0.1761432898
1776408534253207232,0.115,,,,1776408534253207232,0.1769124966
1776408534260899300,0.085,,,,1776408534260899300,0.1776817034
1776408534268591368,0.051,,,,1776408534268591368,0.1784509102
1776408534276283436,0.019,,,,1776408534276283436,0.179220117
1776408534283975504,-0.004,,,,1776408534283975504,0.1799893238
1776408534291667572,-0.007,,,,1776408534291667572,0.1807585306
1776408534299359640,-0.019,,,,1776408534299359640,0.1815277374
1776408534307051708,-0.046,,,,1776408534307051708,0.1822969442
1776408534314743776,-0.022,,,,1776408534314743776,0.183066151
1776408534322435844,0.012,,,,1776408534322435844,0.1838353578
1776408534330127912,-0.002,,,,1776408534330127912,0.1846045646
1776408534337819980,-0.002,,,,1776408534337819980,0.1853737714
1776408534345512048,0.019,,,,1776408534345512048,0.1861429782
1776408534353204116,0.019,,,,1776408534353204116,0.186912185
1776408534360896184,0.019,,,,1776408534360896184,0.1876813918
1776408534368588252,0.034,,,,1776408534368588252,0.1884505986
1776408534376280320,0.036,,,,1776408534376280320,0.1892198054
1776408534383972388,0.034,,,,1776408534383972388,0.1899890122
1776408534391664456,0.049,,,,1776408534391664456,0.190758219
1776408534399356524,0.051,,,,1776408534399356524,0.1915274258
1776408534407048592,0.031,,,,1776408534407048592,0.1922966326
1776408534414740660,0.034,,,,1776408534414740660,0.1930658394
1776408534422432728,0.049,,,,1776408534422432728,0.1938350462
1776408534430124796,0.039,,,,1776408534430124796,0.194604253
1776408534437816864,0.022,,,,1776408534437816864,0.1953734598
1776408534445508932,0.017,,,,1776408534445508932,0.1961426666
1776408534453201000,0.017,,,,1776408534453201000,0.1969118734
1776408534460893068,0.029,,,,1776408534460893068,0.1976810802
1776408534468585136,0.029,,,,1776408534468585136,0.198450287
1776408534476277204,0.017,,,,1776408534476277204,0.1992194938
1776408534483969272,0.014,,,,1776408534483969272,0.1999887006
1776408534491661340,0.009,,,,1776408534491661340,0.2007579074
1776408534499353408,0.002,,,,1776408534499353408,0.2015271142
1776408534507045476,0.007,,,,1776408534507045476,0.202296321
1776408534514737544,0.002,,,,1776408534514737544,0.2030655278
1776408534522429612,-0.004,,,,1776408534522429612,0.2038347346
1776408534530121680,0.0,,,,1776408534530121680,0.2046039414
1776408534537813748,0.009,,,,1776408534537813748,0.2053731482
1776408534545505816,0.017,,,,1776408534545505816,0.206142355
1776408534553197884,0.019,,,,1776408534553197884,0.2069115618
1776408534560889952,0.029,,,,1776408534560889952,0.2076807686
1776408534568582020,0.024,,,,1776408534568582020,0.2084499754
1776408534576274088,0.012,,,,1776408534576274088,0.2092191822
1776408534583966156,0.019,,,,1776408534583966156,0.209988389
1776408534591658224,0.034,,,,1776408534591658224,0.2107575958
1776408534599350292,0.036,,,,1776408534599350292,0.2115268026
1776408534607042360,0.036,,,,1776408534607042360,0.2122960094
1776408534614734428,0.039,,,,1776408534614734428,0.2130652162
1776408534622426496,0.058,,,,1776408534622426496,0.213834423
1776408534630118564,0.078,,,,1776408534630118564,0.2146036298
1776408534637810632,0.085,,,,1776408534637810632,0.2153728366
1776408534645502700,0.09,,,,1776408534645502700,0.2161420434
1776408534653194768,0.08,,,,1776408534653194768,0.2169112502
1776408534660886836,0.066,,,,1776408534660886836,0.217680457
1776408534668578904,0.053,,,,1776408534668578904,0.2184496638
1776408534676270972,0.046,,,,1776408534676270972,0.2192188706
1776408534683963040,0.044,,818.0,,1776408534683963040,0.2199880774
1776408534691655108,0.041,,,,1776408534691655108,0.2207572842
1776408534699347176,0.041,,,,1776408534699347176,0.221526491
1776408534707039244,0.044,,,,1776408534707039244,0.2222956978
1776408534714731312,0.041,,,,1776408534714731312,0.2230649046
1776408534722423380,0.068,,,,1776408534722423380,0.2238341114
1776408534730115512,0.25,75.0,,,1776408534730115512,0.2246033246
1776408534737807302,0.785,,,,1776408534737807302,0.2253725036
1776408534745499092,1.428,,,,1776408534745499092,0.2261416826
1776408534753190882,1.055,,,,1776408534753190882,0.2269108616
1776408534760882672,-0.6890000000000001,,,,1776408534760882672,0.2276800406
1776408534768574462,-1.867,,,,1776408534768574462,0.2284492196
1776408534776266252,-1.305,,,,1776408534776266252,0.2292183986
1776408534783958042,-0.542,,,,1776408534783958042,0.2299875776
1776408534791649832,-0.343,,,,1776408534791649832,0.2307567566
1776408534799341622,-0.012,,,,1776408534799341622,0.2315259356
1776408534807033412,0.274,,,,1776408534807033412,0.2322951146
1776408534814725202,0.206,,,,1776408534814725202,0.2330642936
1776408534822416992,0.174,,,,1776408534822416992,0.2338334726
1776408534830108782,0.267,,,,1776408534830108782,0.2346026516
1776408534837800572,0.257,,,,1776408534837800572,0.2353718306
1776408534845492362,0.233,,,,1776408534845492362,0.2361410096
1776408534853184152,0.262,,,,1776408534853184152,0.2369101886
1776408534860875942,0.262,,,,1776408534860875942,0.2376793676
1776408534868567732,0.255,,,,1776408534868567732,0.2384485466
1776408534876259522,0.279,,,,1776408534876259522,0.2392177256
1776408534883951312,0.299,,,,1776408534883951312,0.2399869046
1776408534891643102,0.309,,,,1776408534891643102,0.2407560836
1776408534899334892,0.318,,,,1776408534899334892,0.2415252626
1776408534907026682,0.318,,,,1776408534907026682,0.2422944416
1776408534914718472,0.326,,,,1776408534914718472,0.2430636206
1776408534922410262,0.345,,,,1776408534922410262,0.2438327996
1776408534930102052,0.355,,,,1776408534930102052,0.2446019786
1776408534937793842,0.365,,,,1776408534937793842,0.2453711576
1776408534945485632,0.382,,,,1776408534945485632,0.2461403366
1776408534953177422,0.399,,,,1776408534953177422,0.2469095156
1776408534960869212,0.402,,,,1776408534960869212,0.2476786946
1776408534968561002,0.387,,,,1776408534968561002,0.2484478736
1776408534976252792,0.36,,,,1776408534976252792,0.2492170526
1776408534983944582,0.323,,,,1776408534983944582,0.2499862316
1776408534991636372,0.299,,,,1776408534991636372,0.2507554106
1776408534999328162,0.274,,,,1776408534999328162,0.2515245896
1776408535007019952,0.225,,,,1776408535007019952,0.2522937686
1776408535014711742,0.171,,,,1776408535014711742,0.2530629476
1776408535022403532,0.132,,,,1776408535022403532,0.2538321266
1776408535030095322,0.095,,,,1776408535030095322,0.2546013056
1776408535037787112,0.066,,,,1776408535037787112,0.2553704846
1776408535045478902,0.041,,,,1776408535045478902,0.2561396636
1776408535053170692,0.002,,,,1776408535053170692,0.2569088426
1776408535060862482,-0.031,,,,1776408535060862482,0.2576780216
1776408535068554272,-0.014,,,,1776408535068554272,0.2584472006
1776408535076246062,0.017,,,,1776408535076246062,0.2592163796
1776408535083937852,-0.002,,,,1776408535083937852,0.2599855586
1776408535091629642,-0.009,,,,1776408535091629642,0.2607547376
1776408535099321432,0.002,,,,1776408535099321432,0.2615239166
1776408535107013222,0.004,,,,1776408535107013222,0.2622930956
1776408535114705012,0.012,,,,1776408535114705012,0.2630622746
1776408535122396802,0.024,,,,1776408535122396802,0.2638314536
1776408535130088592,0.034,,,,1776408535130088592,0.2646006326
1776408535137780382,0.051,,,,1776408535137780382,0.2653698116
1776408535145472172,0.051,,,,1776408535145472172,0.2661389906
1776408535153163962,0.034,,,,1776408535153163962,0.2669081696
1776408535160855752,0.051,,,,1776408535160855752,0.2676773486
1776408535168547542,0.08,,,,1776408535168547542,0.2684465276
1776408535176239332,0.061,,,,1776408535176239332,0.2692157066
1776408535183931122,0.044,,,,1776408535183931122,0.2699848856
1776408535191622912,0.071,,,,1776408535191622912,0.2707540646
1776408535199314702,0.078,,,,1776408535199314702,0.2715232436
1776408535207006492,0.051,,,,1776408535207006492,0.2722924226
1776408535214698282,0.039,,,,1776408535214698282,0.2730616016
1776408535222390072,0.031,,,,1776408535222390072,0.2738307806
1776408535230081862,0.017,,,,1776408535230081862,0.2745999596
1776408535237773652,0.012,,,,1776408535237773652,0.2753691386
1776408535245465442,0.017,,,,1776408535245465442,0.2761383176
1776408535253157232,0.029,,,,1776408535253157232,0.2769074966
1776408535260849022,0.024,,,,1776408535260849022,0.2776766756
1776408535268540812,0.022,,,,1776408535268540812,0.2784458546
1776408535276232602,0.034,,,,1776408535276232602,0.2792150336
1776408535283924392,0.044,,,,1776408535283924392,0.2799842126
1776408535291616194,0.036,,,,1776408535291616194,0.2807533928
1776408535299307984,0.024,,,,1776408535299307984,0.2815225718
1776408535306999774,0.024,,,,1776408535306999774,0.2822917508
1776408535314691564,0.017,,,,1776408535314691564,0.2830609298
1776408535322383354,0.002,,,,1776408535322383354,0.2838301088
1776408535330075144,0.004,,,,1776408535330075144,0.2845992878
1776408535337766934,0.017,,,,1776408535337766934,0.2853684668
1776408535345458724,0.022,,,,1776408535345458724,0.2861376458
1776408535353150514,0.029,,,,1776408535353150514,0.2869068248
1776408535360842304,0.049,,,,1776408535360842304,0.2876760038
1776408535368534094,0.044,,,,1776408535368534094,0.2884451828
1776408535376225884,0.029,,,,1776408535376225884,0.2892143618
1776408535383917674,0.044,,,,1776408535383917674,0.2899835408
1776408535391609464,0.029,,,,1776408535391609464,0.2907527198
1776408535399301254,-0.014,,,,1776408535399301254,0.2915218988
1776408535406993044,-0.007,,,,1776408535406993044,0.2922910778
1776408535414684834,0.012,,,,1776408535414684834,0.2930602568
1776408535422376624,0.004,,743.0,,1776408535422376624,0.2938294358
1776408535430068414,0.007,,,,1776408535430068414,0.2945986148
1776408535437760204,0.024,,,,1776408535437760204,0.2953677938
1776408535445451994,0.029,,,,1776408535445451994,0.2961369728
1776408535453143784,0.152,,,,1776408535453143784,0.2969061518
1776408535460835574,0.662,,,,1776408535460835574,0.2976753308
1776408535468527364,1.383,,,,1776408535468527364,0.2984445098
1776408535476219154,1.251,,,,1776408535476219154,0.2992136888
1776408535483910944,-0.387,,,,1776408535483910944,0.2999828678
1776408535491602734,-1.879,,,,1776408535491602734,0.3007520468
1776408535499294524,-1.545,,,,1776408535499294524,0.3015212258
1776408535506986314,-0.628,,,,1776408535506986314,0.3022904048
1776408535514678104,-0.353,,,,1776408535514678104,0.3030595838
1776408535522369894,-0.085,,,,1776408535522369894,0.3038287628
1776408535530061684,0.252,,,,1776408535530061684,0.3045979418
1776408535537753474,0.233,,,,1776408535537753474,0.3053671208
1776408535545445264,0.169,,,,1776408535545445264,0.3061362998
1776408535553137054,0.26,,,,1776408535553137054,0.3069054788
1776408535560828844,0.279,,,,1776408535560828844,0.3076746578
1776408535568520634,0.242,,,,1776408535568520634,0.3084438368
1776408535576212424,0.267,,,,1776408535576212424,0.3092130158
1776408535583904214,0.294,,,,1776408535583904214,0.3099821948
1776408535591596004,0.287,,,,1776408535591596004,0.3107513738
1776408535599287794,0.289,,,,1776408535599287794,0.3115205528
1776408535606979584,0.304,,,,1776408535606979584,0.3122897318
1776408535614671374,0.306,,,,1776408535614671374,0.3130589108
1776408535622363164,0.296,,,,1776408535622363164,0.3138280898
1776408535630054954,0.309,,,,1776408535630054954,0.3145972688
1776408535637746744,0.35,,,,1776408535637746744,0.3153664478
1776408535645438534,0.375,,,,1776408535645438534,0.3161356268
1776408535653130324,0.363,,,,1776408535653130324,0.3169048058
1776408535660822114,0.382,,,,1776408535660822114,0.3176739848
1776408535668513904,0.412,,,,1776408535668513904,0.3184431638
1776408535676205694,0.404,,,,1776408535676205694,0.3192123428
1776408535683897484,0.392,,,,1776408535683897484,0.3199815218
1776408535691589274,0.409,,,,1776408535691589274,0.3207507008
1776408535699281064,0.412,,,,1776408535699281064,0.3215198798
1776408535706972854,0.37,,,,1776408535706972854,0.3222890588
1776408535714664644,0.333,,,,1776408535714664644,0.3230582378
1776408535722356434,0.316,,,,1776408535722356434,0.3238274168
1776408535730048224,0.267,,,,1776408535730048224,0.3245965958
1776408535737740014,0.206,,,,1776408535737740014,0.3253657748
1776408535745431804,0.161,,,,1776408535745431804,0.3261349538
1776408535753123594,0.117,,,,1776408535753123594,0.3269041328
1776408535760815384,0.076,,,,1776408535760815384,0.3276733118
1776408535768507174,0.061,,,,1776408535768507174,0.3284424908
1776408535776198964,0.039,,,,1776408535776198964,0.3292116698
1776408535783890754,-0.007,,,,1776408535783890754,0.3299808488
1776408535791582544,-0.041,,,,1776408535791582544,0.3307500278
1776408535799274334,-0.014,,,,1776408535799274334,0.3315192068
1776408535806966124,0.024,,,,1776408535806966124,0.3322883858
1776408535814657914,0.0,,,,1776408535814657914,0.3330575648
1776408535822349704,-0.024,,,,1776408535822349704,0.3338267438
1776408535830041494,-0.004,,,,1776408535830041494,0.3345959228
1776408535837733284,0.002,,,,1776408535837733284,0.3353651018
1776408535845425074,0.002,,,,1776408535845425074,0.3361342808
1776408535853116876,0.007,75.0,,,1776408535853116876,0.336903461
1776408535860808666,0.019,,,,1776408535860808666,0.33767264
1776408535868500456,0.044,,,,1776408535868500456,0.338441819
1776408535876192246,0.053,,,,1776408535876192246,0.339210998
1776408535883884036,0.041,,,,1776408535883884036,0.339980177
1776408535891575826,0.044,,,,1776408535891575826,0.340749356
1776408535899267616,0.053,,,,1776408535899267616,0.341518535
1776408535906959406,0.046,,,,1776408535906959406,0.342287714
1776408535914651196,0.044,,,,1776408535914651196,0.343056893
1776408535922342986,0.053,,,,1776408535922342986,0.343826072
1776408535930034776,0.044,,,,1776408535930034776,0.344595251
1776408535937726566,0.022,,,,1776408535937726566,0.34536443
1776408535945418356,0.019,,,,1776408535945418356,0.346133609
1776408535953110146,0.024,,,,1776408535953110146,0.346902788
1776408535960801936,0.007,,,,1776408535960801936,0.347671967
1776408535968493726,-0.004,,,,1776408535968493726,0.348441146
1776408535976185516,0.009,,,,1776408535976185516,0.349210325
1776408535983877306,0.022,,,,1776408535983877306,0.349979504
1776408535991569096,0.019,,,,1776408535991569096,0.350748683
1776408535999260886,0.029,,,,1776408535999260886,0.351517862
1776408536006952676,0.034,,,,1776408536006952676,0.352287041
1776408536014644466,0.024,,,,1776408536014644466,0.35305622
1776408536022336256,0.022,,,,1776408536022336256,0.353825399
1776408536030028046,0.024,,,,1776408536030028046,0.354594578
1776408536037719836,0.034,,,,1776408536037719836,0.355363757
1776408536045411626,0.039,,,,1776408536045411626,0.356132936
1776408536053103416,0.022,,,,1776408536053103416,0.356902115
1776408536060795206,0.009,,,,1776408536060795206,0.357671294
1776408536068486996,0.031,,,,1776408536068486996,0.358440473
1776408536076178786,0.056,,,,1776408536076178786,0.359209652
1776408536083870576,0.051,,,,1776408536083870576,0.359978831
1776408536091562366,0.044,,,,1776408536091562366,0.36074801
1776408536099254156,0.056,,,,1776408536099254156,0.361517189
1776408536106945946,0.073,,,,1776408536106945946,0.362286368
1776408536114637736,0.083,,,,1776408536114637736,0.363055547
1776408536122329526,0.09,,,,1776408536122329526,0.363824726
1776408536130021316,0.093,,,,1776408536130021316,0.364593905
1776408536137713106,0.08,,,,1776408536137713106,0.365363084
1776408536145404896,0.056,,,,1776408536145404896,0.366132263
1776408536153096686,0.046,,,,1776408536153096686,0.366901442
1776408536160788476,0.058,,,,1776408536160788476,0.367670621
1776408536168480266,0.061,,,,1776408536168480266,0.3684398
1776408536176172056,0.046,,,,1776408536176172056,0.369208979
1776408536183863846,0.044,,,,1776408536183863846,0.369978158
1776408536191555636,0.061,,768.0,,1776408536191555636,0.370747337
1776408536199247426,0.066,,,,1776408536199247426,0.371516516
1776408536206939216,0.083,,,,1776408536206939216,0.372285695
1776408536214631006,0.318,,,,1776408536214631006,0.373054874
1776408536222322796,0.986,,,,1776408536222322796,0.373824053
1776408536230014586,1.55,,,,1776408536230014586,0.374593232
1776408536237706376,0.812,,,,1776408536237706376,0.375362411
1776408536245398166,-1.047,,,,1776408536245398166,0.37613159
1776408536253089956,-1.886,,,,1776408536253089956,0.376900769
1776408536260781746,-1.074,,,,1776408536260781746,0.377669948
1776408536268473536,-0.368,,,,1776408536268473536,0.378439127
1776408536276165326,-0.198,,,,1776408536276165326,0.379208306
1776408536283857116,0.127,,,,1776408536283857116,0.379977485
1776408536291548906,0.309,,,,1776408536291548906,0.380746664
1776408536299240696,0.208,,,,1776408536299240696,0.381515843
1776408536306932486,0.225,,,,1776408536306932486,0.382285022
1776408536314624276,0.296,,,,1776408536314624276,0.383054201
1776408536322316066,0.257,,,,1776408536322316066,0.38382338
1776408536330007856,0.257,,,,1776408536330007856,0.384592559
1776408536337699646,0.294,,,,1776408536337699646,0.385361738
1776408536345391436,0.272,,,,1776408536345391436,0.386130917
1776408536353083226,0.274,,,,1776408536353083226,0.386900096
1776408536360775016,0.321,,,,1776408536360775016,0.387669275
1776408536368466806,0.323,,,,1776408536368466806,0.388438454
1776408536376158596,0.311,,,,1776408536376158596,0.389207633
1776408536383850386,0.331,,,,1776408536383850386,0.389976812
1776408536391542176,0.345,,,,1776408536391542176,0.390745991
1776408536399233966,0.348,,,,1776408536399233966,0.39151517
1776408536406925756,0.37,,,,1776408536406925756,0.392284349
1776408536414617558,0.387,76.0,,,1776408536414617558,0.3930535292
1776408536422309348,0.387,,,,1776408536422309348,0.3938227082
1776408536430001138,0.395,,,,1776408536430001138,0.3945918872
1776408536437692928,0.409,,,,1776408536437692928,0.3953610662
1776408536445384718,0.414,,,,1776408536445384718,0.3961302452
1776408536453076508,0.402,,,,1776408536453076508,0.3968994242
1776408536460768298,0.39,,,,1776408536460768298,0.3976686032
1776408536468460088,0.355,,,,1776408536468460088,0.3984377822
1776408536476151878,0.306,,,,1776408536476151878,0.3992069612
1776408536483843668,0.289,,,,1776408536483843668,0.3999761402
1776408536491535458,0.269,,,,1776408536491535458,0.4007453192
1776408536499227248,0.213,,,,1776408536499227248,0.4015144982
1776408536506919038,0.166,,,,1776408536506919038,0.4022836772
1776408536514610828,0.127,,,,1776408536514610828,0.4030528562
1776408536522302618,0.076,,,,1776408536522302618,0.4038220352
1776408536529994408,0.036,,,,1776408536529994408,0.4045912142
1776408536537686198,0.022,,,,1776408536537686198,0.4053603932
1776408536545377988,0.017,,,,1776408536545377988,0.4061295722
1776408536553069778,0.014,,,,1776408536553069778,0.4068987512
1776408536560761568,0.007,,,,1776408536560761568,0.4076679302
1776408536568453358,-0.002,,,,1776408536568453358,0.4084371092
1776408536576145148,0.009,,,,1776408536576145148,0.4092062882
1776408536583836938,0.029,,,,1776408536583836938,0.4099754672
1776408536591528728,0.034,,,,1776408536591528728,0.4107446462
1776408536599220518,0.031,,,,1776408536599220518,0.4115138252
1776408536606912308,0.039,,,,1776408536606912308,0.4122830042
1776408536614604098,0.046,,,,1776408536614604098,0.4130521832
1776408536622295888,0.051,,,,1776408536622295888,0.4138213622
1776408536629987678,0.058,,,,1776408536629987678,0.4145905412
1776408536637679468,0.066,,,,1776408536637679468,0.4153597202
1776408536645371258,0.071,,,,1776408536645371258,0.4161288992
1776408536653063048,0.076,,,,1776408536653063048,0.4168980782
1776408536660754838,0.073,,,,1776408536660754838,0.4176672572
1776408536668446628,0.056,,,,1776408536668446628,0.4184364362
1776408536676138418,0.056,,,,1776408536676138418,0.4192056152
1776408536683830208,0.085,,,,1776408536683830208,0.4199747942
1776408536691521998,0.073,,,,1776408536691521998,0.4207439732
1776408536699213788,0.049,,,,1776408536699213788,0.4215131522
1776408536706905578,0.066,,,,1776408536706905578,0.4222823312
1776408536714597368,0.076,,,,1776408536714597368,0.4230515102
1776408536722289158,0.046,,,,1776408536722289158,0.4238206892
1776408536729980948,0.026,,,,1776408536729980948,0.4245898682
1776408536737672738,0.041,,,,1776408536737672738,0.4253590472
1776408536745364528,0.049,,,,1776408536745364528,0.4261282262
1776408536753056318,0.019,,,,1776408536753056318,0.4268974052
1776408536760748108,0.017,,,,1776408536760748108,0.4276665842
1776408536768439898,0.068,,,,1776408536768439898,0.4284357632
1776408536776131688,0.071,,,,1776408536776131688,0.4292049422
1776408536783823478,0.031,,,,1776408536783823478,0.4299741212
1776408536791515268,0.046,,,,1776408536791515268,0.4307433002
1776408536799207058,0.073,,,,1776408536799207058,0.4315124792
1776408536806898848,0.058,,,,1776408536806898848,0.4322816582
1776408536814590638,0.039,,,,1776408536814590638,0.4330508372
1776408536822282428,0.041,,,,1776408536822282428,0.4338200162
1776408536829974218,0.034,,,,1776408536829974218,0.4345891952
1776408536837666008,0.024,,,,1776408536837666008,0.4353583742
1776408536845357798,0.026,,,,1776408536845357798,0.4361275532
1776408536853049588,0.034,,,,1776408536853049588,0.4368967322
1776408536860741378,0.026,,,,1776408536860741378,0.4376659112
1776408536868433168,0.022,,,,1776408536868433168,0.4384350902
1776408536876124958,0.039,,,,1776408536876124958,0.4392042692
1776408536883816748,0.051,,,,1776408536883816748,0.4399734482
1776408536891508538,0.049,,,,1776408536891508538,0.4407426272
1776408536899200328,0.051,,,,1776408536899200328,0.4415118062
1776408536906892118,0.049,,,,1776408536906892118,0.4422809852
1776408536914583908,0.041,,,,1776408536914583908,0.4430501642
1776408536922275698,0.041,,,,1776408536922275698,0.4438193432
1776408536929967488,0.066,,,,1776408536929967488,0.4445885222
1776408536937659278,0.088,,,,1776408536937659278,0.4453577012
1776408536945351068,0.09,,,,1776408536945351068,0.4461268802
1776408536953042858,0.088,,,,1776408536953042858,0.4468960592
1776408536960734648,0.088,,,,1776408536960734648,0.4476652382
1776408536968426438,0.066,,775.0,,1776408536968426438,0.4484344172
1776408536976118240,0.039,,,,1776408536976118240,0.4492035974
1776408536983810030,0.044,,,,1776408536983810030,0.4499727764
1776408536991501820,0.058,,,,1776408536991501820,0.4507419554
1776408536999193610,0.051,,,,1776408536999193610,0.4515111344
1776408537006885400,0.049,,,,1776408537006885400,0.4522803134
1776408537014577190,0.056,,,,1776408537014577190,0.4530494924
1776408537022268980,0.058,,,,1776408537022268980,0.4538186714
1776408537029960770,0.061,,,,1776408537029960770,0.4545878504
1776408537037652560,0.09,,,,1776408537037652560,0.4553570294
1776408537045344350,0.306,,,,1776408537045344350,0.4561262084
1776408537053036140,0.895,,,,1776408537053036140,0.4568953874
1776408537060727930,1.447,,,,1776408537060727930,0.4576645664
1776408537068419720,0.841,,,,1776408537068419720,0.4584337454
1776408537076111510,-0.915,,,,1776408537076111510,0.4592029244
1776408537083803300,-1.815,,,,1776408537083803300,0.4599721034
1776408537091495090,-1.118,,,,1776408537091495090,0.4607412824
1776408537099186880,-0.436,,,,1776408537099186880,0.4615104614
1776408537106878670,-0.257,,,,1776408537106878670,0.4622796404
1776408537114570460,0.063,,,,1776408537114570460,0.4630488194
1776408537122262250,0.287,,,,1776408537122262250,0.4638179984
1776408537129954040,0.211,,,,1776408537129954040,0.4645871774
1776408537137645830,0.203,,,,1776408537137645830,0.4653563564
1776408537145337620,0.284,,,,1776408537145337620,0.4661255354
1776408537153029410,0.277,,,,1776408537153029410,0.4668947144
1776408537160721200,0.262,,,,1776408537160721200,0.4676638934
1776408537168412990,0.287,,,,1776408537168412990,0.4684330724
1776408537176104780,0.287,,,,1776408537176104780,0.4692022514
1776408537183796570,0.284,,,,1776408537183796570,0.4699714304
1776408537191488360,0.299,,,,1776408537191488360,0.4707406094
1776408537199180150,0.294,,,,1776408537199180150,0.4715097884
1776408537206871940,0.284,,,,1776408537206871940,0.4722789674
1776408537214563730,0.304,,,,1776408537214563730,0.4730481464
1776408537222255520,0.333,,,,1776408537222255520,0.4738173254
1776408537229947310,0.338,,,,1776408537229947310,0.4745865044
1776408537237639100,0.343,,,,1776408537237639100,0.4753556834
1776408537245330890,0.358,,,,1776408537245330890,0.4761248624
1776408537253022680,0.37,,,,1776408537253022680,0.4768940414
1776408537260714470,0.37,,,,1776408537260714470,0.4776632204
1776408537268406260,0.372,,,,1776408537268406260,0.4784323994
1776408537276098050,0.38,,,,1776408537276098050,0.4792015784
1776408537283789840,0.375,,,,1776408537283789840,0.4799707574
1776408537291481630,0.36,,,,1776408537291481630,0.4807399364
1776408537299173420,0.348,,,,1776408537299173420,0.4815091154
1776408537306865210,0.309,,,,1776408537306865210,0.4822782944
1776408537314557000,0.26,,,,1776408537314557000,0.4830474734
1776408537322248790,0.223,,,,1776408537322248790,0.4838166524
1776408537329940580,0.176,,,,1776408537329940580,0.4845858314
1776408537337632370,0.112,,,,1776408537337632370,0.4853550104
1776408537345324160,0.066,,,,1776408537345324160,0.4861241894
1776408537353015950,0.044,,,,1776408537353015950,0.4868933684
1776408537360707740,0.024,,,,1776408537360707740,0.4876625474
1776408537368399530,0.002,,,,1776408537368399530,0.4884317264
1776408537376091320,-0.022,,,,1776408537376091320,0.4892009054
1776408537383783110,-0.034,,,,1776408537383783110,0.4899700844
1776408537391474900,-0.019,,,,1776408537391474900,0.4907392634
1776408537399166690,-0.004,,,,1776408537399166690,0.4915084424
1776408537406858480,-0.012,,,,1776408537406858480,0.4922776214
1776408537414550270,-0.019,,,,1776408537414550270,0.4930468004
1776408537422242060,-0.007,,,,1776408537422242060,0.4938159794
1776408537429933850,0.014,,,,1776408537429933850,0.4945851584
1776408537437625640,0.022,,,,1776408537437625640,0.4953543374
1776408537445317430,0.014,,,,1776408537445317430,0.4961235164
1776408537453009220,0.019,,,,1776408537453009220,0.4968926954
1776408537460701010,0.034,,,,1776408537460701010,0.4976618744
1776408537468392800,0.034,,,,1776408537468392800,0.4984310534
1776408537476084590,0.034,,,,1776408537476084590,0.4992002324
1776408537483776380,0.056,,,,1776408537483776380,0.4999694114
1776408537491468170,0.061,,,,1776408537491468170,0.5007385904
1776408537499159960,0.034,,,,1776408537499159960,0.5015077694
1776408537506851750,0.014,,,,1776408537506851750,0.5022769484
1776408537514543540,0.024,,,,1776408537514543540,0.5030461274
1776408537522235330,0.041,,,,1776408537522235330,0.5038153064
1776408537529927120,0.039,,,,1776408537529927120,0.5045844854
1776408537537618922,0.024,76.0,,,1776408537537618922,0.5053536656
1776408537545310712,0.014,,,,1776408537545310712,0.5061228446
1776408537553002502,0.017,,,,1776408537553002502,0.5068920236
1776408537560694292,0.024,,,,1776408537560694292,0.5076612026
1776408537568386082,0.022,,,,1776408537568386082,0.5084303816
1776408537576077872,0.017,,,,1776408537576077872,0.5091995606
1776408537583769662,0.007,,,,1776408537583769662,0.5099687396
1776408537591461452,-0.012,,,,1776408537591461452,0.5107379186
1776408537599153242,-0.022,,,,1776408537599153242,0.5115070976
1776408537606845032,-0.019,,,,1776408537606845032,0.5122762766
1776408537614536822,-0.019,,,,1776408537614536822,0.5130454556
1776408537622228612,-0.022,,,,1776408537622228612,0.5138146346
1776408537629920402,-0.017,,,,1776408537629920402,0.5145838136
1776408537637612192,-0.012,,,,1776408537637612192,0.5153529926
1776408537645303982,-0.002,,,,1776408537645303982,0.5161221716
1776408537652995772,0.009,,,,1776408537652995772,0.5168913506
1776408537660687562,0.007,,,,1776408537660687562,0.5176605296
1776408537668379352,0.007,,,,1776408537668379352,0.5184297086
1776408537676071142,0.014,,,,1776408537676071142,0.5191988876
1776408537683762932,0.014,,,,1776408537683762932,0.5199680666
1776408537691454722,0.002,,,,1776408537691454722,0.5207372456
1776408537699146512,0.009,,,,1776408537699146512,0.5215064246
1776408537706838302,0.034,,,,1776408537706838302,0.5222756036
1776408537714530092,0.051,,,,1776408537714530092,0.5230447826
1776408537722221882,0.058,,,,1776408537722221882,0.5238139616
1776408537729913672,0.061,,,,1776408537729913672,0.5245831406
1776408537737605462,0.046,,,,1776408537737605462,0.5253523196
1776408537745297252,0.029,,775.0,,1776408537745297252,0.5261214986
1776408537752989042,0.019,,,,1776408537752989042,0.5268906776
1776408537760680832,0.012,,,,1776408537760680832,0.5276598566
1776408537768372622,0.012,,,,1776408537768372622,0.5284290356
1776408537776064412,0.017,,,,1776408537776064412,0.5291982146
1776408537783756202,0.026,,,,1776408537783756202,0.5299673936
1776408537791447992,0.039,,,,1776408537791447992,0.5307365726
1776408537799139782,0.039,,,,1776408537799139782,0.5315057516
1776408537806831572,0.034,,,,1776408537806831572,0.5322749306
1776408537814523362,0.152,,,,1776408537814523362,0.5330441096
1776408537822215152,0.618,,,,1776408537822215152,0.5338132886
1776408537829906942,1.342,,,,1776408537829906942,0.5345824676
1776408537837598732,1.327,,,,1776408537837598732,0.5353516466
1776408537845290522,-0.233,,,,1776408537845290522,0.5361208256
1776408537852982312,-1.82,,,,1776408537852982312,0.5368900046
1776408537860674102,-1.612,,,,1776408537860674102,0.5376591836
1776408537868365892,-0.682,,,,1776408537868365892,0.5384283626
1776408537876057682,-0.38,,,,1776408537876057682,0.5391975416
1776408537883749472,-0.13,,,,1776408537883749472,0.5399667206
1776408537891441262,0.245,,,,1776408537891441262,0.5407358996
1776408537899133052,0.26,,,,1776408537899133052,0.5415050786
1776408537906824842,0.171,,,,1776408537906824842,0.5422742576
1776408537914516632,0.247,,,,1776408537914516632,0.5430434366
1776408537922208422,0.277,,,,1776408537922208422,0.5438126156
1776408537929900212,0.23,,,,1776408537929900212,0.5445817946
1776408537937592002,0.245,,,,1776408537937592002,0.5453509736
1776408537945283792,0.272,,,,1776408537945283792,0.5461201526
1776408537952975582,0.264,,,,1776408537952975582,0.5468893316
1776408537960667372,0.274,,,,1776408537960667372,0.5476585106
1776408537968359162,0.294,,,,1776408537968359162,0.5484276896
1776408537976050952,0.289,,,,1776408537976050952,0.5491968686
1776408537983742742,0.289,,,,1776408537983742742,0.5499660476
1776408537991434532,0.309,,,,1776408537991434532,0.5507352266
1776408537999126322,0.323,,,,1776408537999126322,0.5515044056
1776408538006818112,0.331,,,,1776408538006818112,0.5522735846
1776408538014509902,0.343,,,,1776408538014509902,0.5530427636
1776408538022201692,0.365,,,,1776408538022201692,0.5538119426
1776408538029893482,0.38,,,,1776408538029893482,0.5545811216
1776408538037585272,0.38,,,,1776408538037585272,0.5553503006
1776408538045277062,0.39,,,,1776408538045277062,0.5561194796
1776408538052968852,0.392,,,,1776408538052968852,0.5568886586
1776408538060660642,0.37,,,,1776408538060660642,0.5576578376
1776408538068352432,0.35,,,,1776408538068352432,0.5584270166
1776408538076044222,0.326,,,,1776408538076044222,0.5591961956
1776408538083736012,0.284,,,,1776408538083736012,0.5599653746
1776408538091427802,0.245,,,,1776408538091427802,0.5607345536
1776408538099119604,0.198,,,,1776408538099119604,0.5615037338
1776408538106811394,0.142,,,,1776408538106811394,0.5622729128
1776408538114503184,0.103,,,,1776408538114503184,0.5630420918
1776408538122194974,0.073,,,,1776408538122194974,0.5638112708
1776408538129886764,0.036,,,,1776408538129886764,0.5645804498
1776408538137578554,0.004,,,,1776408538137578554,0.5653496288
1776408538145270344,-0.009,,,,1776408538145270344,0.5661188078
1776408538152962134,-0.012,,,,1776408538152962134,0.5668879868
1776408538160653924,-0.019,,,,1776408538160653924,0.5676571658
1776408538168345714,-0.024,,,,1776408538168345714,0.5684263448
1776408538176037504,-0.022,,,,1776408538176037504,0.5691955238
1776408538183729294,-0.014,,,,1776408538183729294,0.5699647028
1776408538191421084,-0.014,,,,1776408538191421084,0.5707338818
1776408538199112874,-0.017,,,,1776408538199112874,0.5715030608
1776408538206804664,-0.002,,,,1776408538206804664,0.5722722398
1776408538214496454,0.014,,,,1776408538214496454,0.5730414188
1776408538222188244,0.019,,,,1776408538222188244,0.5738105978
1776408538229880034,0.029,,,,1776408538229880034,0.5745797768
1776408538237571824,0.044,,,,1776408538237571824,0.5753489558
1776408538245263614,0.044,,,,1776408538245263614,0.5761181348
1776408538252955404,0.044,,,,1776408538252955404,0.5768873138
1776408538260647194,0.041,,,,1776408538260647194,0.5776564928
1776408538268338984,0.036,,,,1776408538268338984,0.5784256718
1776408538276030774,0.036,,,,1776408538276030774,0.5791948508
1776408538283722564,0.031,,,,1776408538283722564,0.5799640298
1776408538291414354,0.019,,,,1776408538291414354,0.5807332088
1776408538299106144,0.022,,,,1776408538299106144,0.5815023878
1776408538306797934,0.036,,,,1776408538306797934,0.5822715668
1776408538314489724,0.034,,,,1776408538314489724,0.5830407458
1776408538322181514,0.019,,,,1776408538322181514,0.5838099248
1776408538329873304,0.009,,,,1776408538329873304,0.5845791038
1776408538337565094,0.009,,,,1776408538337565094,0.5853482828
1776408538345256884,0.002,,,,1776408538345256884,0.5861174618
1776408538352948674,-0.009,,,,1776408538352948674,0.5868866408
1776408538360640464,-0.012,,,,1776408538360640464,0.5876558198
1776408538368332254,-0.019,,,,1776408538368332254,0.5884249988
1776408538376024044,-0.024,,,,1776408538376024044,0.5891941778
1776408538383715834,-0.004,,,,1776408538383715834,0.5899633568
1776408538391407624,0.004,,,,1776408538391407624,0.5907325358
1776408538399099414,-0.002,,,,1776408538399099414,0.5915017148
1776408538406791204,-0.002,,,,1776408538406791204,0.5922708938
1776408538414482994,0.007,,,,1776408538414482994,0.5930400728
1776408538422174784,0.002,,,,1776408538422174784,0.5938092518
1776408538429866574,-0.004,,,,1776408538429866574,0.5945784308
1776408538437558364,0.0,,,,1776408538437558364,0.5953476098
1776408538445250154,0.009,,,,1776408538445250154,0.5961167888
1776408538452941944,0.014,,,,1776408538452941944,0.5968859678
1776408538460633734,0.026,,,,1776408538460633734,0.5976551468
1776408538468325524,0.034,,725.0,,1776408538468325524,0.5984243258
1776408538476017314,0.026,,,,1776408538476017314,0.5991935048
1776408538483709104,0.019,,,,1776408538483709104,0.5999626838
1776408538491400894,0.036,,,,1776408538491400894,0.6007318628
1776408538499092684,0.063,,,,1776408538499092684,0.6015010418
1776408538506784474,0.073,,,,1776408538506784474,0.6022702208
1776408538514476264,0.073,,,,1776408538514476264,0.6030393998
1776408538522168054,0.076,,,,1776408538522168054,0.6038085788
1776408538529859844,0.078,,,,1776408538529859844,0.6045777578
1776408538537551634,0.068,,,,1776408538537551634,0.6053469368
1776408538545243424,0.049,,,,1776408538545243424,0.6061161158
1776408538552935214,0.026,,,,1776408538552935214,0.6068852948
1776408538560627004,0.026,,,,1776408538560627004,0.6076544738
1776408538568318794,0.051,,,,1776408538568318794,0.6084236528
1776408538576010584,0.061,,,,1776408538576010584,0.6091928318
1776408538583702374,0.051,,,,1776408538583702374,0.6099620108
1776408538591394164,0.053,,,,1776408538591394164,0.6107311898
1776408538599085954,0.056,,,,1776408538599085954,0.6115003688
1776408538606777744,0.132,,,,1776408538606777744,0.6122695478
1776408538614469534,0.537,,,,1776408538614469534,0.6130387268
1776408538622161324,1.288,,,,1776408538622161324,0.6138079058
1776408538629853114,1.486,,,,1776408538629853114,0.6145770848
1776408538637544904,0.149,,,,1776408538637544904,0.6153462638
1776408538645236694,-1.604,,,,1776408538645236694,0.6161154428
1776408538652928484,-1.719,,,,1776408538652928484,0.6168846218
1776408538660620286,-0.745,76.0,,,1776408538660620286,0.617653802
1776408538668312076,-0.299,,,,1776408538668312076,0.618422981
1776408538676003866,-0.105,,,,1776408538676003866,0.61919216
1776408538683695656,0.225,,,,1776408538683695656,0.619961339
1776408538691387446,0.274,,,,1776408538691387446,0.620730518
1776408538699079236,0.188,,,,1776408538699079236,0.621499697
1776408538706771026,0.255,,,,1776408538706771026,0.622268876
1776408538714462816,0.284,,,,1776408538714462816,0.623038055
1776408538722154606,0.242,,,,1776408538722154606,0.623807234
1776408538729846396,0.255,,,,1776408538729846396,0.624576413
1776408538737538186,0.282,,,,1776408538737538186,0.625345592
1776408538745229976,0.279,,,,1776408538745229976,0.626114771
1776408538752921766,0.282,,,,1776408538752921766,0.62688395
1776408538760613556,0.282,,,,1776408538760613556,0.627653129
1776408538768305346,0.284,,,,1776408538768305346,0.628422308
1776408538775997136,0.311,,,,1776408538775997136,0.629191487
1776408538783688926,0.328,,,,1776408538783688926,0.629960666
1776408538791380716,0.321,,,,1776408538791380716,0.630729845
1776408538799072506,0.333,,,,1776408538799072506,0.631499024
1776408538806764296,0.368,,,,1776408538806764296,0.632268203
1776408538814456086,0.377,,,,1776408538814456086,0.633037382
1776408538822147876,0.375,,,,1776408538822147876,0.633806561
1776408538829839666,0.387,,,,1776408538829839666,0.63457574
1776408538837531456,0.392,,,,1776408538837531456,0.635344919
1776408538845223246,0.385,,,,1776408538845223246,0.636114098
1776408538852915036,0.368,,,,1776408538852915036,0.636883277
1776408538860606826,0.338,,,,1776408538860606826,0.637652456
1776408538868298616,0.306,,,,1776408538868298616,0.638421635
1776408538875990406,0.287,,,,1776408538875990406,0.639190814
1776408538883682196,0.262,,,,1776408538883682196,0.639959993
1776408538891373986,0.213,,,,1776408538891373986,0.640729172
1776408538899065776,0.174,,,,1776408538899065776,0.641498351
1776408538906757566,0.147,,,,1776408538906757566,0.64226753
1776408538914449356,0.095,,,,1776408538914449356,0.643036709
1776408538922141146,0.044,,,,1776408538922141146,0.643805888
1776408538929832936,0.019,,,,1776408538929832936,0.644575067
1776408538937524726,0.004,,,,1776408538937524726,0.645344246
1776408538945216516,-0.009,,,,1776408538945216516,0.646113425
1776408538952908306,-0.031,,,,1776408538952908306,0.646882604
1776408538960600096,-0.046,,,,1776408538960600096,0.647651783
1776408538968291886,-0.019,,,,1776408538968291886,0.648420962
1776408538975983676,0.014,,,,1776408538975983676,0.649190141
1776408538983675466,0.009,,,,1776408538983675466,0.64995932
1776408538991367256,0.009,,,,1776408538991367256,0.650728499
1776408538999059046,0.022,,,,1776408538999059046,0.651497678
1776408539006750836,0.022,,,,1776408539006750836,0.652266857
1776408539014442626,0.022,,,,1776408539014442626,0.653036036
1776408539022134416,0.029,,,,1776408539022134416,0.653805215
1776408539029826206,0.031,,,,1776408539029826206,0.654574394
1776408539037517996,0.051,,,,1776408539037517996,0.655343573
1776408539045209786,0.066,,,,1776408539045209786,0.656112752
1776408539052901576,0.049,,,,1776408539052901576,0.656881931
1776408539060593366,0.036,,,,1776408539060593366,0.65765111
1776408539068285156,0.049,,,,1776408539068285156,0.658420289
1776408539075976946,0.049,,,,1776408539075976946,0.659189468
1776408539083668736,0.034,,,,1776408539083668736,0.659958647
1776408539091360526,0.041,,,,1776408539091360526,0.660727826
1776408539099052316,0.044,,,,1776408539099052316,0.661497005
1776408539106744106,0.017,,,,1776408539106744106,0.662266184
1776408539114435896,0.012,,,,1776408539114435896,0.663035363
1776408539122127686,0.034,,,,1776408539122127686,0.663804542
1776408539129819476,0.036,,,,1776408539129819476,0.664573721
1776408539137511266,0.017,,,,1776408539137511266,0.6653429
1776408539145203056,0.019,,,,1776408539145203056,0.666112079
1776408539152894846,0.026,,,,1776408539152894846,0.666881258
1776408539160586636,0.017,,,,1776408539160586636,0.667650437
1776408539168278426,0.004,,,,1776408539168278426,0.668419616
1776408539175970216,0.002,,,,1776408539175970216,0.669188795
1776408539183662006,0.017,,,,1776408539183662006,0.669957974
1776408539191353796,0.039,,,,1776408539191353796,0.670727153
1776408539199045586,0.036,,,,1776408539199045586,0.671496332
1776408539206737376,0.026,,,,1776408539206737376,0.672265511
1776408539214429166,0.031,,,,1776408539214429166,0.67303469
1776408539222120968,0.034,,759.0,,1776408539222120968,0.6738038702
1776408539229812758,0.031,,,,1776408539229812758,0.6745730492
1776408539237504548,0.031,,,,1776408539237504548,0.6753422282
1776408539245196338,0.044,,,,1776408539245196338,0.6761114072
1776408539252888128,0.053,,,,1776408539252888128,0.6768805862
1776408539260579918,0.051,,,,1776408539260579918,0.6776497652
1776408539268271708,0.049,,,,1776408539268271708,0.6784189442
1776408539275963498,0.051,,,,1776408539275963498,0.6791881232
1776408539283655288,0.063,,,,1776408539283655288,0.6799573022
1776408539291347078,0.056,,,,1776408539291347078,0.6807264812
1776408539299038868,0.031,,,,1776408539299038868,0.6814956602
1776408539306730658,0.039,,,,1776408539306730658,0.6822648392
1776408539314422448,0.063,,,,1776408539314422448,0.6830340182
1776408539322114238,0.063,,,,1776408539322114238,0.6838031972
1776408539329806028,0.061,,,,1776408539329806028,0.6845723762
1776408539337497818,0.071,,,,1776408539337497818,0.6853415552
1776408539345189608,0.076,,,,1776408539345189608,0.6861107342
1776408539352881398,0.061,,,,1776408539352881398,0.6868799132
1776408539360573188,0.044,,,,1776408539360573188,0.6876490922
1776408539368264978,0.051,,,,1776408539368264978,0.6884182712
1776408539375956768,0.073,,,,1776408539375956768,0.6891874502
1776408539383648558,0.09,,,,1776408539383648558,0.6899566292
1776408539391340348,0.103,,,,1776408539391340348,0.6907258082
1776408539399032138,0.112,,,,1776408539399032138,0.6914949872
1776408539406723928,0.095,,,,1776408539406723928,0.6922641662
1776408539414415718,0.056,,,,1776408539414415718,0.6930333452
1776408539422107508,0.049,,,,1776408539422107508,0.6938025242
1776408539429799298,0.066,,,,1776408539429799298,0.6945717032
1776408539437491088,0.056,,,,1776408539437491088,0.6953408822
1776408539445182878,0.036,,,,1776408539445182878,0.6961100612
1776408539452874668,0.041,,,,1776408539452874668,0.6968792402
1776408539460566458,0.051,,,,1776408539460566458,0.6976484192
1776408539468258248,0.071,,,,1776408539468258248,0.6984175982
1776408539475950038,0.083,,,,1776408539475950038,0.6991867772
1776408539483641828,0.117,,,,1776408539483641828,0.6999559562
1776408539491333618,0.409,,,,1776408539491333618,0.7007251352
1776408539499025408,1.099,,,,1776408539499025408,0.7014943142
1776408539506717198,1.499,,,,1776408539506717198,0.7022634932
1776408539514408988,0.527,,,,1776408539514408988,0.7030326722
1776408539522100778,-1.234,,,,1776408539522100778,0.7038018512
1776408539529792568,-1.734,,,,1776408539529792568,0.7045710302
1776408539537484358,-0.885,,,,1776408539537484358,0.7053402092
1776408539545176148,-0.336,,,,1776408539545176148,0.7061093882
1776408539552867938,-0.161,,,,1776408539552867938,0.7068785672
1776408539560559728,0.169,,,,1776408539560559728,0.7076477462
1776408539568251518,0.287,,,,1776408539568251518,0.7084169252
1776408539575943308,0.193,,,,1776408539575943308,0.7091861042
1776408539583635098,0.24,,,,1776408539583635098,0.7099552832
1776408539591326888,0.301,,,,1776408539591326888,0.7107244622
1776408539599018678,0.267,,,,1776408539599018678,0.7114936412
1776408539606710468,0.26,,,,1776408539606710468,0.7122628202
1776408539614402258,0.282,,,,1776408539614402258,0.7130319992
1776408539622094048,0.279,,,,1776408539622094048,0.7138011782
1776408539629785838,0.282,,,,1776408539629785838,0.7145703572
1776408539637477628,0.299,,,,1776408539637477628,0.7153395362
1776408539645169418,0.314,,,,1776408539645169418,0.7161087152
1776408539652861208,0.316,,,,1776408539652861208,0.7168778942
1776408539660552998,0.311,,,,1776408539660552998,0.7176470732
1776408539668244788,0.316,,,,1776408539668244788,0.7184162522
1776408539675936578,0.321,,,,1776408539675936578,0.7191854312
1776408539683628368,0.331,,,,1776408539683628368,0.7199546102
1776408539691320158,0.345,,,,1776408539691320158,0.7207237892
1776408539699011948,0.353,,,,1776408539699011948,0.7214929682
1776408539706703738,0.37,,,,1776408539706703738,0.7222621472
1776408539714395528,0.385,,,,1776408539714395528,0.7230313262
1776408539722087318,0.375,,,,1776408539722087318,0.7238005052
1776408539729779108,0.363,,,,1776408539729779108,0.7245696842
1776408539737470898,0.355,,,,1776408539737470898,0.7253388632
1776408539745162688,0.341,,,,1776408539745162688,0.7261080422
1776408539752854478,0.299,,,,1776408539752854478,0.7268772212
1776408539760546268,0.245,,,,1776408539760546268,0.7276464002
1776408539768238058,0.203,,,,1776408539768238058,0.7284155792
1776408539775929848,0.169,,,,1776408539775929848,0.7291847582
1776408539783621650,0.12,77.0,,,1776408539783621650,0.7299539384
1776408539791313440,0.08,,,,1776408539791313440,0.7307231174
1776408539799005230,0.073,,,,1776408539799005230,0.7314922964
1776408539806697020,0.056,,,,1776408539806697020,0.7322614754
1776408539814388810,0.014,,,,1776408539814388810,0.7330306544
1776408539822080600,-0.002,,,,1776408539822080600,0.7337998334
1776408539829772390,-0.002,,,,1776408539829772390,0.7345690124
1776408539837464180,-0.012,,,,1776408539837464180,0.7353381914
1776408539845155970,-0.024,,,,1776408539845155970,0.7361073704
1776408539852847760,-0.024,,,,1776408539852847760,0.7368765494
1776408539860539550,-0.026,,,,1776408539860539550,0.7376457284
1776408539868231340,-0.034,,,,1776408539868231340,0.7384149074
1776408539875923130,-0.029,,,,1776408539875923130,0.7391840864
1776408539883614920,-0.019,,,,1776408539883614920,0.7399532654
1776408539891306710,-0.022,,,,1776408539891306710,0.7407224444
1776408539898998500,-0.022,,,,1776408539898998500,0.7414916234
1776408539906690290,-0.017,,,,1776408539906690290,0.7422608024
1776408539914382080,-0.007,,,,1776408539914382080,0.7430299814
1776408539922073870,0.002,,,,1776408539922073870,0.7437991604
1776408539929765660,0.004,,,,1776408539929765660,0.7445683394
1776408539937457450,0.004,,,,1776408539937457450,0.7453375184
1776408539945149240,0.007,,,,1776408539945149240,0.7461066974
1776408539952841030,0.009,,,,1776408539952841030,0.7468758764
1776408539960532820,0.012,,,,1776408539960532820,0.7476450554
1776408539968224610,0.019,,,,1776408539968224610,0.7484142344
1776408539975916400,0.019,,,,1776408539975916400,0.7491834134
1776408539983608190,0.007,,,,1776408539983608190,0.7499525924
1776408539991299980,0.002,,,,1776408539991299980,0.7507217714
1776408539998991770,0.002,,,,1776408539998991770,0.7514909504
1776408540006683560,0.004,,,,1776408540006683560,0.7522601294
1776408540014375350,0.012,,,,1776408540014375350,0.7530293084
1776408540022067140,0.012,,,,1776408540022067140,0.7537984874
1776408540029758930,0.014,,,,1776408540029758930,0.7545676664
1776408540037450720,0.012,,,,1776408540037450720,0.7553368454
1776408540045142510,0.007,,,,1776408540045142510,0.7561060244
1776408540052834300,0.009,,,,1776408540052834300,0.7568752034
1776408540060526090,0.024,,831.0,,1776408540060526090,0.7576443824
1776408540068217880,0.034,,,,1776408540068217880,0.7584135614
1776408540075909670,0.024,,,,1776408540075909670,0.7591827404
1776408540083601460,0.012,,,,1776408540083601460,0.7599519194
1776408540091293250,0.026,,,,1776408540091293250,0.7607210984
1776408540098985040,0.051,,,,1776408540098985040,0.7614902774
1776408540106676830,0.049,,,,1776408540106676830,0.7622594564
1776408540114368620,0.039,,,,1776408540114368620,0.7630286354
1776408540122060410,0.044,,,,1776408540122060410,0.7637978144
1776408540129752200,0.051,,,,1776408540129752200,0.7645669934
1776408540137443990,0.056,,,,1776408540137443990,0.7653361724
1776408540145135780,0.056,,,,1776408540145135780,0.7661053514
1776408540152827570,0.051,,,,1776408540152827570,0.7668745304
1776408540160519360,0.058,,,,1776408540160519360,0.7676437094
1776408540168211150,0.061,,,,1776408540168211150,0.7684128884
1776408540175902940,0.053,,,,1776408540175902940,0.7691820674
1776408540183594730,0.061,,,,1776408540183594730,0.7699512464
1776408540191286520,0.073,,,,1776408540191286520,0.7707204254
1776408540198978310,0.076,,,,1776408540198978310,0.7714896044
1776408540206670100,0.085,,,,1776408540206670100,0.7722587834
1776408540214361890,0.107,,,,1776408540214361890,0.7730279624
1776408540222053680,0.117,,,,1776408540222053680,0.7737971414
1776408540229745470,0.11,,,,1776408540229745470,0.7745663204
1776408540237437260,0.103,,,,1776408540237437260,0.7753354994
1776408540245129050,0.098,,,,1776408540245129050,0.7761046784
1776408540252820840,0.083,,,,1776408540252820840,0.7768738574
1776408540260512630,0.071,,,,1776408540260512630,0.7776430364
1776408540268204420,0.071,,,,1776408540268204420,0.7784122154
1776408540275896210,0.073,,,,1776408540275896210,0.7791813944
1776408540283588000,0.063,,,,1776408540283588000,0.7799505734
1776408540291279790,0.066,,,,1776408540291279790,0.7807197524
1776408540298971580,0.08,,,,1776408540298971580,0.7814889314
1776408540306663370,0.088,,,,1776408540306663370,0.7822581104
1776408540314355160,0.13,,,,1776408540314355160,0.7830272894
1776408540322046950,0.417,,,,1776408540322046950,0.7837964684
1776408540329738740,1.089,,,,1776408540329738740,0.7845656474
1776408540337430530,1.516,,,,1776408540337430530,0.7853348264
1776408540345122332,0.547,76.0,,,1776408540345122332,0.7861040066
1776408540352814122,-1.266,,,,1776408540352814122,0.7868731856
1776408540360505912,-1.769,,,,1776408540360505912,0.7876423646
1776408540368197702,-0.927,,,,1776408540368197702,0.7884115436
1776408540375889492,-0.414,,,,1776408540375889492,0.7891807226
1776408540383581282,-0.228,,,,1776408540383581282,0.7899499016
1776408540391273072,0.154,,,,1776408540391273072,0.7907190806
1776408540398964862,0.304,,,,1776408540398964862,0.7914882596
1776408540406656652,0.201,,,,1776408540406656652,0.7922574386
1776408540414348442,0.23,,,,1776408540414348442,0.7930266176
1776408540422040232,0.301,,,,1776408540422040232,0.7937957966
1776408540429732022,0.282,,,,1776408540429732022,0.7945649756
1776408540437423812,0.282,,,,1776408540437423812,0.7953341546
1776408540445115602,0.304,,,,1776408540445115602,0.7961033336
1776408540452807392,0.291,,,,1776408540452807392,0.7968725126
1776408540460499182,0.284,,,,1776408540460499182,0.7976416916
1776408540468190972,0.291,,,,1776408540468190972,0.7984108706
1776408540475882762,0.299,,,,1776408540475882762,0.7991800496
1776408540483574552,0.314,,,,1776408540483574552,0.7999492286
1776408540491266342,0.328,,,,1776408540491266342,0.8007184076
1776408540498958132,0.328,,,,1776408540498958132,0.8014875866
1776408540506649922,0.345,,,,1776408540506649922,0.8022567656
1776408540514341712,0.365,,,,1776408540514341712,0.8030259446
1776408540522033502,0.36,,,,1776408540522033502,0.8037951236
1776408540529725292,0.368,,,,1776408540529725292,0.8045643026
1776408540537417082,0.385,,,,1776408540537417082,0.8053334816
1776408540545108872,0.395,,,,1776408540545108872,0.8061026606
1776408540552800662,0.399,,,,1776408540552800662,0.8068718396
1776408540560492452,0.402,,,,1776408540560492452,0.8076410186
1776408540568184242,0.385,,,,1776408540568184242,0.8084101976
1776408540575876032,0.35,,,,1776408540575876032,0.8091793766
1776408540583567822,0.296,,,,1776408540583567822,0.8099485556
1776408540591259612,0.25,,,,1776408540591259612,0.8107177346
1776408540598951402,0.213,,,,1776408540598951402,0.8114869136
1776408540606643192,0.171,,,,1776408540606643192,0.8122560926
1776408540614334982,0.125,,,,1776408540614334982,0.8130252716
1776408540622026772,0.083,,,,1776408540622026772,0.8137944506
1776408540629718562,0.044,,,,1776408540629718562,0.8145636296
1776408540637410352,0.017,,,,1776408540637410352,0.8153328086
1776408540645102142,0.002,,,,1776408540645102142,0.8161019876
1776408540652793932,-0.004,,,,1776408540652793932,0.8168711666
1776408540660485722,-0.004,,,,1776408540660485722,0.8176403456
1776408540668177512,-0.012,,,,1776408540668177512,0.8184095246
1776408540675869302,-0.019,,,,1776408540675869302,0.8191787036
1776408540683561092,-0.017,,,,1776408540683561092,0.8199478826
1776408540691252882,-0.014,,,,1776408540691252882,0.8207170616
1776408540698944672,-0.019,,,,1776408540698944672,0.8214862406
1776408540706636462,-0.012,,,,1776408540706636462,0.8222554196
1776408540714328252,0.004,,,,1776408540714328252,0.8230245986
1776408540722020042,0.017,,,,1776408540722020042,0.8237937776
1776408540729711832,0.007,,,,1776408540729711832,0.8245629566
1776408540737403622,0.012,,,,1776408540737403622,0.8253321356
1776408540745095412,0.041,,,,1776408540745095412,0.8261013146
1776408540752787202,0.056,,,,1776408540752787202,0.8268704936
1776408540760478992,0.041,,,,1776408540760478992,0.8276396726
1776408540768170782,0.031,,,,1776408540768170782,0.8284088516
1776408540775862572,0.039,,,,1776408540775862572,0.8291780306
1776408540783554362,0.039,,,,1776408540783554362,0.8299472096
1776408540791246152,0.034,,,,1776408540791246152,0.8307163886
1776408540798937942,0.041,,,,1776408540798937942,0.8314855676
1776408540806629732,0.031,,,,1776408540806629732,0.8322547466
1776408540814321522,0.012,,,,1776408540814321522,0.8330239256
1776408540822013312,0.024,,,,1776408540822013312,0.8337931046
1776408540829705102,0.053,,772.0,,1776408540829705102,0.8345622836
1776408540837396892,0.058,,,,1776408540837396892,0.8353314626
1776408540845088682,0.036,,,,1776408540845088682,0.8361006416
1776408540852780472,0.026,,,,1776408540852780472,0.8368698206
1776408540860472262,0.051,,,,1776408540860472262,0.8376389996
1776408540868164052,0.073,,,,1776408540868164052,0.8384081786
1776408540875855842,0.026,,,,1776408540875855842,0.8391773576
1776408540883547632,-0.031,,,,1776408540883547632,0.8399465366
1776408540891239422,-0.019,,,,1776408540891239422,0.8407157156
1776408540898931212,0.002,,,,1776408540898931212,0.8414848946
1776408540906623014,0.004,,,,1776408540906623014,0.8422540748
1776408540914314804,0.024,,,,1776408540914314804,0.8430232538
1776408540922006594,0.034,,,,1776408540922006594,0.8437924328
1776408540929698384,0.039,,,,1776408540929698384,0.8445616118
1776408540937390174,0.058,,,,1776408540937390174,0.8453307908
1776408540945081964,0.044,,,,1776408540945081964,0.8460999698
1776408540952773754,0.009,,,,1776408540952773754,0.8468691488
1776408540960465544,0.031,,,,1776408540960465544,0.8476383278
1776408540968157334,0.053,,,,1776408540968157334,0.8484075068
1776408540975849124,0.039,,,,1776408540975849124,0.8491766858
1776408540983540914,0.058,,,,1776408540983540914,0.8499458648
1776408540991232704,0.098,,,,1776408540991232704,0.8507150438
1776408540998924494,0.073,,,,1776408540998924494,0.8514842228
1776408541006616284,0.044,,,,1776408541006616284,0.8522534018
1776408541014308074,0.083,,,,1776408541014308074,0.8530225808
1776408541021999864,0.11,,,,1776408541021999864,0.8537917598
1776408541029691654,0.066,,,,1776408541029691654,0.8545609388
1776408541037383444,0.061,,,,1776408541037383444,0.8553301178
1776408541045075234,0.09,,,,1776408541045075234,0.8560992968
1776408541052767024,0.046,,,,1776408541052767024,0.8568684758
1776408541060458814,0.026,,,,1776408541060458814,0.8576376548
1776408541068150604,0.044,,,,1776408541068150604,0.8584068338
1776408541075842394,0.012,,,,1776408541075842394,0.8591760128
1776408541083534184,0.019,,,,1776408541083534184,0.8599451918
1776408541091225974,0.071,,,,1776408541091225974,0.8607143708
1776408541098917764,0.053,,,,1776408541098917764,0.8614835498
1776408541106609554,0.161,,,,1776408541106609554,0.8622527288
1776408541114301344,0.704,,,,1776408541114301344,0.8630219078
1776408541121993134,1.42,,,,1776408541121993134,0.8637910868
1776408541129684924,1.285,,,,1776408541129684924,0.8645602658
1776408541137376714,-0.326,,,,1776408541137376714,0.8653294448
1776408541145068504,-1.82,,,,1776408541145068504,0.8660986238
1776408541152760294,-1.528,,,,1776408541152760294,0.8668678028
1776408541160452084,-0.608,,,,1776408541160452084,0.8676369818
1776408541168143874,-0.311,,,,1776408541168143874,0.8684061608
1776408541175835664,-0.083,,,,1776408541175835664,0.8691753398
1776408541183527454,0.257,,,,1776408541183527454,0.8699445188
1776408541191219244,0.267,,,,1776408541191219244,0.8707136978
1776408541198911034,0.139,,,,1776408541198911034,0.8714828768
1776408541206602824,0.215,,,,1776408541206602824,0.8722520558
1776408541214294614,0.333,,,,1776408541214294614,0.8730212348
1776408541221986404,0.296,,,,1776408541221986404,0.8737904138
1776408541229678194,0.245,,,,1776408541229678194,0.8745595928
1776408541237369984,0.291,,,,1776408541237369984,0.8753287718
1776408541245061774,0.316,,,,1776408541245061774,0.8760979508
1776408541252753564,0.306,,,,1776408541252753564,0.8768671298
1776408541260445354,0.318,,,,1776408541260445354,0.8776363088
1776408541268137144,0.326,,,,1776408541268137144,0.8784054878
1776408541275828934,0.331,,,,1776408541275828934,0.8791746668
1776408541283520724,0.341,,,,1776408541283520724,0.8799438458
1776408541291212514,0.331,,,,1776408541291212514,0.8807130248
1776408541298904304,0.318,,,,1776408541298904304,0.8814822038
1776408541306596094,0.348,,,,1776408541306596094,0.8822513828
1776408541314287884,0.377,,,,1776408541314287884,0.8830205618
1776408541321979674,0.37,,,,1776408541321979674,0.8837897408
1776408541329671464,0.382,,,,1776408541329671464,0.8845589198
1776408541337363254,0.404,,,,1776408541337363254,0.8853280988
1776408541345055044,0.397,,,,1776408541345055044,0.8860972778
1776408541352746834,0.387,,,,1776408541352746834,0.8868664568
1776408541360438624,0.365,,,,1776408541360438624,0.8876356358
1776408541368130414,0.311,,,,1776408541368130414,0.8884048148
1776408541375822204,0.272,,,,1776408541375822204,0.8891739938
1776408541383513994,0.238,,,,1776408541383513994,0.8899431728
1776408541391205784,0.166,,,,1776408541391205784,0.8907123518
1776408541398897574,0.105,,,,1776408541398897574,0.8914815308
1776408541406589364,0.076,,,,1776408541406589364,0.8922507098
1776408541414281154,0.044,,,,1776408541414281154,0.8930198888
1776408541421972944,0.022,,,,1776408541421972944,0.8937890678
1776408541429664734,0.007,,,,1776408541429664734,0.8945582468
1776408541437356524,-0.014,,,,1776408541437356524,0.8953274258
1776408541445048314,-0.034,,,,1776408541445048314,0.8960966048
1776408541452740104,-0.056,,,,1776408541452740104,0.8968657838
1776408541460431894,-0.078,,,,1776408541460431894,0.8976349628
1776408541468123696,-0.046,76.0,,,1776408541468123696,0.898404143
1776408541475815486,0.0,,,,1776408541475815486,0.899173322
1776408541483507276,-0.017,,,,1776408541483507276,0.899942501
1776408541491199066,-0.041,,,,1776408541491199066,0.90071168
1776408541498890856,-0.007,,,,1776408541498890856,0.901480859
1776408541506582646,0.014,,,,1776408541506582646,0.902250038
1776408541514274436,-0.022,,,,1776408541514274436,0.903019217
1776408541521966226,-0.026,,,,1776408541521966226,0.903788396
1776408541529658016,0.014,,,,1776408541529658016,0.904557575
1776408541537349806,0.004,,,,1776408541537349806,0.905326754
1776408541545041596,-0.014,,,,1776408541545041596,0.906095933
1776408541552733386,0.026,,,,1776408541552733386,0.906865112
1776408541560425176,0.022,,,,1776408541560425176,0.907634291
1776408541568116966,-0.017,,,,1776408541568116966,0.90840347
1776408541575808756,0.031,,,,1776408541575808756,0.909172649
1776408541583500546,0.046,,,,1776408541583500546,0.909941828
1776408541591192336,-0.024,,,,1776408541591192336,0.910711007
1776408541598884126,-0.019,,,,1776408541598884126,0.911480186
1776408541606575916,0.022,,,,1776408541606575916,0.912249365
1776408541614267706,-0.031,,,,1776408541614267706,0.913018544
1776408541621959496,-0.066,,794.0,,1776408541621959496,0.913787723
1776408541629651286,-0.014,,,,1776408541629651286,0.914556902
1776408541637343076,-0.012,,,,1776408541637343076,0.915326081
1776408541645034866,-0.053,,,,1776408541645034866,0.91609526
1776408541652726656,-0.058,,,,1776408541652726656,0.916864439
1776408541660418446,-0.041,,,,1776408541660418446,0.917633618
1776408541668110236,-0.017,,,,1776408541668110236,0.918402797
1776408541675802026,-0.012,,,,1776408541675802026,0.919171976
1776408541683493816,-0.051,,,,1776408541683493816,0.919941155
1776408541691185606,-0.068,,,,1776408541691185606,0.920710334
1776408541698877396,-0.031,,,,1776408541698877396,0.921479513
1776408541706569186,-0.014,,,,1776408541706569186,0.922248692
1776408541714260976,-0.012,,,,1776408541714260976,0.923017871
1776408541721952766,0.002,,,,1776408541721952766,0.92378705
1776408541729644556,-0.007,,,,1776408541729644556,0.924556229
1776408541737336346,-0.046,,,,1776408541737336346,0.925325408
1776408541745028136,-0.049,,,,1776408541745028136,0.926094587
1776408541752719926,0.004,,,,1776408541752719926,0.926863766
1776408541760411716,0.014,,,,1776408541760411716,0.927632945
1776408541768103506,-0.009,,,,1776408541768103506,0.928402124
1776408541775795296,0.014,,,,1776408541775795296,0.929171303
1776408541783487086,0.007,,,,1776408541783487086,0.929940482
1776408541791178876,-0.017,,,,1776408541791178876,0.930709661
1776408541798870666,0.031,,,,1776408541798870666,0.93147884
1776408541806562456,0.083,,,,1776408541806562456,0.932248019
1776408541814254246,0.071,,,,1776408541814254246,0.933017198
1776408541821946036,0.034,,,,1776408541821946036,0.933786377
1776408541829637826,0.029,,,,1776408541829637826,0.934555556
1776408541837329616,0.041,,,,1776408541837329616,0.935324735
1776408541845021406,0.034,,,,1776408541845021406,0.936093914
1776408541852713196,0.017,,,,1776408541852713196,0.936863093
1776408541860404986,0.026,,,,1776408541860404986,0.937632272
1776408541868096776,0.046,,,,1776408541868096776,0.938401451
1776408541875788566,0.019,,,,1776408541875788566,0.93917063
1776408541883480356,0.0,,,,1776408541883480356,0.939939809
1776408541891172146,0.056,,,,1776408541891172146,0.940708988
1776408541898863936,0.161,,,,1776408541898863936,0.941478167
1776408541906555726,0.544,,,,1776408541906555726,0.942247346
1776408541914247516,1.28,,,,1776408541914247516,0.943016525
1776408541921939306,1.344,,,,1776408541921939306,0.943785704
1776408541929631096,-0.147,,,,1776408541929631096,0.944554883
1776408541937322886,-1.729,,,,1776408541937322886,0.945324062
1776408541945014676,-1.609,,,,1776408541945014676,0.946093241
1776408541952706466,-0.743,,,,1776408541952706466,0.94686242
1776408541960398256,-0.407,,,,1776408541960398256,0.947631599
1776408541968090046,-0.122,,,,1776408541968090046,0.948400778
1776408541975781836,0.242,,,,1776408541975781836,0.949169957
1776408541983473626,0.25,,,,1776408541983473626,0.949939136
1776408541991165416,0.144,,,,1776408541991165416,0.950708315
1776408541998857206,0.233,,,,1776408541998857206,0.951477494
1776408542006548996,0.316,,,,1776408542006548996,0.952246673
1776408542014240786,0.267,,,,1776408542014240786,0.953015852
1776408542021932576,0.235,,,,1776408542021932576,0.953785031
1776408542029624378,0.277,,,,1776408542029624378,0.9545542112
1776408542037316516,0.267,,,,1776408542037316516,0.955323425
1776408542045008654,0.267,,,,1776408542045008654,0.9560926388
1776408542052700792,0.336,,,,1776408542052700792,0.9568618526
1776408542060392930,0.336,,,,1776408542060392930,0.9576310664
1776408542068085068,0.304,,,,1776408542068085068,0.9584002802
1776408542075777206,0.316,,,,1776408542075777206,0.959169494
1776408542083469344,0.306,,,,1776408542083469344,0.9599387078
1776408542091161482,0.306,,,,1776408542091161482,0.9607079216
1776408542098853620,0.338,,,,1776408542098853620,0.9614771354
1776408542106545758,0.348,,,,1776408542106545758,0.9622463492
1776408542114237896,0.338,,,,1776408542114237896,0.963015563
1776408542121930034,0.355,,,,1776408542121930034,0.9637847768
1776408542129622172,0.404,,,,1776408542129622172,0.9645539906
1776408542137314310,0.385,,,,1776408542137314310,0.9653232044
1776408542145006448,0.318,,,,1776408542145006448,0.9660924182
1776408542152698586,0.358,,,,1776408542152698586,0.966861632
1776408542160390724,0.36,,,,1776408542160390724,0.9676308458
1776408542168082862,0.225,,,,1776408542168082862,0.9684000596
1776408542175775000,0.169,,,,1776408542175775000,0.9691692734
1776408542183467138,0.176,,,,1776408542183467138,0.9699384872
1776408542191159276,0.115,,,,1776408542191159276,0.970707701
1776408542198851414,0.083,,,,1776408542198851414,0.9714769148
1776408542206543552,0.066,,,,1776408542206543552,0.9722461286
1776408542214235690,-0.004,,,,1776408542214235690,0.9730153424
1776408542221927828,-0.034,,,,1776408542221927828,0.9737845562
1776408542229619966,0.019,,,,1776408542229619966,0.97455377
1776408542237312104,0.022,,,,1776408542237312104,0.9753229838
1776408542245004242,-0.051,,,,1776408542245004242,0.9760921976
1776408542252696380,-0.058,,,,1776408542252696380,0.9768614114
1776408542260388518,-0.026,,,,1776408542260388518,0.9776306252
1776408542268080656,-0.041,,,,1776408542268080656,0.978399839
1776408542275772794,-0.066,,,,1776408542275772794,0.9791690528
1776408542283464932,-0.068,,,,1776408542283464932,0.9799382666
1776408542291157070,-0.019,,,,1776408542291157070,0.9807074804
1776408542298849208,0.026,,,,1776408542298849208,0.9814766942
1776408542306541346,-0.009,,,,1776408542306541346,0.982245908
1776408542314233484,-0.029,,,,1776408542314233484,0.9830151218
1776408542321925622,0.036,,,,1776408542321925622,0.9837843356
1776408542329617760,0.085,,,,1776408542329617760,0.9845535494
1776408542337309898,0.031,,,,1776408542337309898,0.9853227632
1776408542345002036,-0.058,,,,1776408542345002036,0.986091977
1776408542352694174,-0.024,,,,1776408542352694174,0.9868611908
1776408542360386312,0.076,,,,1776408542360386312,0.9876304046
1776408542368078450,0.029,,,,1776408542368078450,0.9883996184
1776408542375770588,-0.029,,,,1776408542375770588,0.9891688322
1776408542383462726,0.012,,,,1776408542383462726,0.989938046
1776408542391154864,0.014,,,,1776408542391154864,0.9907072598
1776408542398847002,-0.007,,,,1776408542398847002,0.9914764736
1776408542406539140,-0.012,,,,1776408542406539140,0.9922456874
1776408542414231278,-0.022,,,,1776408542414231278,0.9930149012
1776408542421923416,0.002,,,,1776408542421923416,0.993784115
1776408542429615554,0.024,,,,1776408542429615554,0.9945533288
1776408542437307692,-0.024,,,,1776408542437307692,0.9953225426
1776408542444999830,-0.053,,,,1776408542444999830,0.9960917564
1776408542452691968,0.002,,,,1776408542452691968,0.9968609702
1776408542460384106,-0.004,,,,1776408542460384106,0.997630184
1776408542468076244,-0.061,,,,1776408542468076244,0.9983993978
1776408542475768382,0.002,,,,1776408542475768382,0.9991686116
1776408542483460520,0.041,,,,1776408542483460520,0.9999378254
1776408542491152658,-0.002,,,,1776408542491152658,1.0007070392
1776408542498844796,0.014,,879.0,,1776408542498844796,1.001476253
1776408542506536934,0.058,,,,1776408542506536934,1.0022454668
1776408542514229072,0.041,,,,1776408542514229072,1.0030146806
1776408542521921210,-0.017,,,,1776408542521921210,1.0037838944
1776408542529613348,0.0,,,,1776408542529613348,1.0045531082
1776408542537305486,0.09,,,,1776408542537305486,1.005322322
1776408542544997624,0.076,,,,1776408542544997624,1.0060915358
1776408542552689762,0.024,,,,1776408542552689762,1.0068607496
1776408542560381900,0.063,,,,1776408542560381900,1.0076299634
1776408542568074038,0.08,,,,1776408542568074038,1.0083991772
1776408542575766176,0.049,,,,1776408542575766176,1.009168391
1776408542583458314,0.036,,,,1776408542583458314,1.0099376048
1776408542591150490,0.014,76.0,,,1776408542591150490,1.0107068224
1776408542598841931,0.014,,,,1776408542598841931,1.0114759665
1776408542606533372,0.022,,,,1776408542606533372,1.0122451106
1776408542614224813,-0.012,,,,1776408542614224813,1.0130142547
1776408542621916254,-0.002,,,,1776408542621916254,1.0137833988
1776408542629607695,0.039,,,,1776408542629607695,1.0145525429
1776408542637299136,0.157,,,,1776408542637299136,1.015321687
1776408542644990577,0.5660000000000001,,,,1776408542644990577,1.0160908311
1776408542652682018,1.248,,,,1776408542652682018,1.0168599752
1776408542660373459,1.391,,,,1776408542660373459,1.0176291193
1776408542668064900,0.002,,,,1776408542668064900,1.0183982634
1776408542675756341,-1.742,,,,1776408542675756341,1.0191674075
1776408542683447782,-1.776,,,,1776408542683447782,1.0199365516
1776408542691139223,-0.853,,,,1776408542691139223,1.0207056957
1776408542698830664,-0.461,,,,1776408542698830664,1.0214748398
1776408542706522105,-0.179,,,,1776408542706522105,1.0222439839
1776408542714213546,0.176,,,,1776408542714213546,1.023013128
1776408542721904987,0.252,,,,1776408542721904987,1.0237822721
1776408542729596428,0.247,,,,1776408542729596428,1.0245514162
1776408542737287869,0.252,,,,1776408542737287869,1.0253205603
1776408542744979310,0.23,,,,1776408542744979310,1.0260897044
1776408542752670751,0.25,,,,1776408542752670751,1.0268588485
1776408542760362192,0.255,,,,1776408542760362192,1.0276279926
1776408542768053633,0.269,,,,1776408542768053633,1.0283971367
1776408542775745074,0.301,,,,1776408542775745074,1.0291662808
1776408542783436515,0.289,,,,1776408542783436515,1.0299354249
1776408542791127956,0.301,,,,1776408542791127956,1.030704569
1776408542798819397,0.333,,,,1776408542798819397,1.0314737131
1776408542806510838,0.321,,,,1776408542806510838,1.0322428572
1776408542814202279,0.314,,,,1776408542814202279,1.0330120013
1776408542821893720,0.321,,,,1776408542821893720,1.0337811454
1776408542829585161,0.343,,,,1776408542829585161,1.0345502895
1776408542837276602,0.375,,,,1776408542837276602,1.0353194336
1776408542844968043,0.39,,,,1776408542844968043,1.0360885777
1776408542852659484,0.407,,,,1776408542852659484,1.0368577218
1776408542860350925,0.409,,,,1776408542860350925,1.0376268659
1776408542868042366,0.404,,,,1776408542868042366,1.03839601
1776408542875733807,0.431,,,,1776408542875733807,1.0391651541
1776408542883425248,0.419,,,,1776408542883425248,1.0399342982
1776408542891116689,0.348,,,,1776408542891116689,1.0407034423
1776408542898808130,0.341,,,,1776408542898808130,1.0414725864
1776408542906499571,0.318,,,,1776408542906499571,1.0422417305
1776408542914191012,0.211,,,,1776408542914191012,1.0430108746
1776408542921882453,0.161,,,,1776408542921882453,1.0437800187
1776408542929573894,0.171,,,,1776408542929573894,1.0445491628
1776408542937265335,0.117,,,,1776408542937265335,1.0453183069
1776408542944956776,0.051,,,,1776408542944956776,1.046087451
1776408542952648217,0.019,,,,1776408542952648217,1.0468565951
1776408542960339658,-0.012,,,,1776408542960339658,1.0476257392
1776408542968031099,-0.019,,,,1776408542968031099,1.0483948833
1776408542975722540,-0.022,,,,1776408542975722540,1.0491640274
1776408542983413981,-0.041,,,,1776408542983413981,1.0499331715
1776408542991105422,-0.012,,,,1776408542991105422,1.0507023156
1776408542998796863,0.0,,,,1776408542998796863,1.0514714597
1776408543006488304,-0.034,,,,1776408543006488304,1.0522406038
1776408543014179745,-0.022,,,,1776408543014179745,1.0530097479
1776408543021871186,-0.004,,,,1776408543021871186,1.053778892
1776408543029562627,-0.009,,,,1776408543029562627,1.0545480361
1776408543037254068,0.002,,,,1776408543037254068,1.0553171802
1776408543044945509,0.009,,,,1776408543044945509,1.0560863243
1776408543052636950,0.007,,,,1776408543052636950,1.0568554684
1776408543060328391,0.014,,,,1776408543060328391,1.0576246125
1776408543068019832,0.036,,,,1776408543068019832,1.0583937566
1776408543075711273,0.031,,,,1776408543075711273,1.0591629007
1776408543083402714,0.029,,,,1776408543083402714,1.0599320448
1776408543091094155,0.046,,,,1776408543091094155,1.0607011889
1776408543098785596,0.039,,,,1776408543098785596,1.061470333
1776408543106477037,0.017,,,,1776408543106477037,1.0622394771
1776408543114168478,-0.002,,,,1776408543114168478,1.0630086212
1776408543121859919,0.0,,,,1776408543121859919,1.0637777653
1776408543129551360,0.014,,,,1776408543129551360,1.0645469094
1776408543137242801,0.004,,,,1776408543137242801,1.0653160535
1776408543144934242,-0.014,,,,1776408543144934242,1.0660851976
1776408543152625742,-0.009,,,,1776408543152625742,1.0668543476
1776408543160317601,0.002,,,,1776408543160317601,1.0676235335
1776408543168009460,0.002,,,,1776408543168009460,1.0683927194
1776408543175701319,0.0,,,,1776408543175701319,1.0691619053
1776408543183393178,0.004,,,,1776408543183393178,1.0699310912
1776408543191085037,-0.007,,,,1776408543191085037,1.0707002771
1776408543198776896,-0.012,,,,1776408543198776896,1.071469463
1776408543206468755,0.019,,,,1776408543206468755,1.0722386489
1776408543214160614,0.026,,,,1776408543214160614,1.0730078348
1776408543221852473,-0.004,,,,1776408543221852473,1.0737770207
1776408543229544332,0.0,,,,1776408543229544332,1.0745462066
1776408543237236191,0.024,,,,1776408543237236191,1.0753153925
1776408543244928050,0.022,,,,1776408543244928050,1.0760845784
1776408543252619909,0.031,,,,1776408543252619909,1.0768537643
1776408543260311768,0.061,,,,1776408543260311768,1.0776229502
1776408543268003627,0.061,,,,1776408543268003627,1.0783921361
1776408543275695486,0.041,,,,1776408543275695486,1.079161322
1776408543283387345,0.036,,,,1776408543283387345,1.0799305079
1776408543291079204,0.022,,,,1776408543291079204,1.0806996938
1776408543298771063,-0.007,,,,1776408543298771063,1.0814688797
1776408543306462922,-0.009,,,,1776408543306462922,1.0822380656
1776408543314154781,0.009,,,,1776408543314154781,1.0830072515
1776408543321846640,0.019,,,,1776408543321846640,1.0837764374
1776408543329538499,0.017,,831.0,,1776408543329538499,1.0845456233
1776408543337230358,0.017,,,,1776408543337230358,1.0853148092
1776408543344922217,0.017,,,,1776408543344922217,1.0860839951
1776408543352614076,0.122,,,,1776408543352614076,1.086853181
1776408543360305935,0.588,,,,1776408543360305935,1.0876223669
1776408543367997794,1.334,,,,1776408543367997794,1.0883915528
1776408543375689653,1.354,,,,1776408543375689653,1.0891607387
1776408543383381512,-0.176,,,,1776408543383381512,1.0899299246
1776408543391073371,-1.805,,,,1776408543391073371,1.0906991105
1776408543398765230,-1.685,,,,1776408543398765230,1.0914682964
1776408543406457089,-0.763,,,,1776408543406457089,1.0922374823
1776408543414148948,-0.402,,,,1776408543414148948,1.0930066682
1776408543421840807,-0.144,,,,1776408543421840807,1.0937758541
1776408543429532666,0.201,,,,1776408543429532666,1.09454504
1776408543437224525,0.218,,,,1776408543437224525,1.0953142259
1776408543444916384,0.134,,,,1776408543444916384,1.0960834118
1776408543452608243,0.245,,,,1776408543452608243,1.0968525977
1776408543460300102,0.289,,,,1776408543460300102,1.0976217836
1776408543467991961,0.196,,,,1776408543467991961,1.0983909695
1776408543475683820,0.208,,,,1776408543475683820,1.0991601554
1776408543483375679,0.272,,,,1776408543483375679,1.0999293413
1776408543491067538,0.252,,,,1776408543491067538,1.1006985272
1776408543498759397,0.23,,,,1776408543498759397,1.1014677131
1776408543506451256,0.255,,,,1776408543506451256,1.102236899
1776408543514143115,0.277,,,,1776408543514143115,1.1030060849
1776408543521834974,0.274,,,,1776408543521834974,1.1037752708
1776408543529526833,0.264,,,,1776408543529526833,1.1045444567
1776408543537218692,0.25,,,,1776408543537218692,1.1053136426
1776408543544910551,0.238,,,,1776408543544910551,1.1060828285
1776408543552602410,0.269,,,,1776408543552602410,1.1068520144
1776408543560294269,0.299,,,,1776408543560294269,1.1076212003
1776408543567986128,0.294,,,,1776408543567986128,1.1083903862
1776408543575677987,0.291,,,,1776408543575677987,1.1091595721
1776408543583369846,0.267,,,,1776408543583369846,1.109928758
1776408543591061705,0.242,,,,1776408543591061705,1.1106979439
1776408543598753564,0.26,,,,1776408543598753564,1.1114671298
1776408543606445423,0.228,,,,1776408543606445423,1.1122363157
1776408543614137282,0.196,,,,1776408543614137282,1.1130055016
1776408543621829141,0.233,,,,1776408543621829141,1.1137746875
1776408543629521000,0.164,,,,1776408543629521000,1.1145438734
1776408543637212859,0.071,,,,1776408543637212859,1.1153130593
1776408543644904718,0.112,,,,1776408543644904718,1.1160822452
1776408543652596577,0.093,,,,1776408543652596577,1.1168514311
1776408543660288436,0.002,,,,1776408543660288436,1.117620617
1776408543667980295,0.007,,,,1776408543667980295,1.1183898029
1776408543675672154,0.014,,,,1776408543675672154,1.1191589888
1776408543683364013,-0.031,,,,1776408543683364013,1.1199281747
1776408543691055872,-0.014,,,,1776408543691055872,1.1206973606
1776408543698747731,0.026,,,,1776408543698747731,1.1214665465
1776408543706439590,0.002,,,,1776408543706439590,1.1222357324
1776408543714131510,-0.004,75.0,,,1776408543714131510,1.1230049244
1776408543721823369,0.034,,,,1776408543721823369,1.1237741103
1776408543729515228,0.024,,,,1776408543729515228,1.1245432962
1776408543737207087,0.014,,,,1776408543737207087,1.1253124821
1776408543744898946,0.061,,,,1776408543744898946,1.126081668
1776408543752590805,0.066,,,,1776408543752590805,1.1268508539
1776408543760282664,0.056,,,,1776408543760282664,1.1276200398
1776408543767974523,0.085,,,,1776408543767974523,1.1283892257
1776408543775666382,0.071,,,,1776408543775666382,1.1291584116
1776408543783358241,0.049,,,,1776408543783358241,1.1299275975
1776408543791050100,0.078,,,,1776408543791050100,1.1306967834
1776408543798741959,0.093,,,,1776408543798741959,1.1314659693
1776408543806433818,0.08,,,,1776408543806433818,1.1322351552
1776408543814125677,0.08,,,,1776408543814125677,1.1330043411
1776408543821817536,0.066,,,,1776408543821817536,1.133773527
1776408543829509395,0.051,,,,1776408543829509395,1.1345427129
1776408543837201254,0.066,,,,1776408543837201254,1.1353118988
1776408543844893113,0.056,,,,1776408543844893113,1.1360810847
1776408543852584972,0.019,,,,1776408543852584972,1.1368502706
1776408543860276831,0.049,,,,1776408543860276831,1.1376194565
1776408543867968690,0.098,,,,1776408543867968690,1.1383886424
1776408543875660549,0.066,,,,1776408543875660549,1.1391578283
1776408543883352408,0.024,,,,1776408543883352408,1.1399270142
1776408543891044267,0.034,,,,1776408543891044267,1.1406962001
1776408543898736126,0.039,,,,1776408543898736126,1.141465386
1776408543906427985,0.031,,,,1776408543906427985,1.1422345719
1776408543914119844,0.041,,,,1776408543914119844,1.1430037578
1776408543921811703,0.041,,,,1776408543921811703,1.1437729437
1776408543929503562,0.051,,,,1776408543929503562,1.1445421296
1776408543937195421,0.041,,,,1776408543937195421,1.1453113155
1776408543944887280,0.029,,,,1776408543944887280,1.1460805014
1776408543952579139,0.08,,,,1776408543952579139,1.1468496873
1776408543960270998,0.085,,,,1776408543960270998,1.1476188732
1776408543967962857,0.051,,,,1776408543967962857,1.1483880591
1776408543975654716,0.056,,,,1776408543975654716,1.149157245
1776408543983346575,0.039,,,,1776408543983346575,1.1499264309
1776408543991038434,0.029,,,,1776408543991038434,1.1506956168
1776408543998730293,0.046,,,,1776408543998730293,1.1514648027
1776408544006422152,0.039,,,,1776408544006422152,1.1522339886
1776408544014114011,0.024,,,,1776408544014114011,1.1530031745
1776408544021805870,0.024,,,,1776408544021805870,1.1537723604
1776408544029497729,0.031,,,,1776408544029497729,1.1545415463
1776408544037189588,0.066,,,,1776408544037189588,1.1553107322
1776408544044881447,0.093,,,,1776408544044881447,1.1560799181
1776408544052573306,0.09,,,,1776408544052573306,1.156849104
1776408544060265165,0.309,,,,1776408544060265165,1.1576182899
1776408544067957024,0.922,,,,1776408544067957024,1.1583874758
1776408544075648883,1.428,,,,1776408544075648883,1.1591566617
1776408544083340742,0.753,,,,1776408544083340742,1.1599258476
1776408544091032601,-0.944,,,,1776408544091032601,1.1606950335
1776408544098724460,-1.668,,,,1776408544098724460,1.1614642194
1776408544106416319,-0.937,,,,1776408544106416319,1.1622334053
1776408544114108178,-0.36,,,,1776408544114108178,1.1630025912
1776408544121800037,-0.211,,789.0,,1776408544121800037,1.1637717771
1776408544129491896,0.098,,,,1776408544129491896,1.164540963
1776408544137183755,0.257,,,,1776408544137183755,1.1653101489
1776408544144875614,0.154,,,,1776408544144875614,1.1660793348
1776408544152567473,0.149,,,,1776408544152567473,1.1668485207
1776408544160259332,0.235,,,,1776408544160259332,1.1676177066
1776408544167951191,0.245,,,,1776408544167951191,1.1683868925
1776408544175643050,0.228,,,,1776408544175643050,1.1691560784
1776408544183334909,0.24,,,,1776408544183334909,1.1699252643
1776408544191026768,0.238,,,,1776408544191026768,1.1706944502
1776408544198718627,0.24,,,,1776408544198718627,1.1714636361
1776408544206410486,0.279,,,,1776408544206410486,1.172232822
1776408544214102345,0.287,,,,1776408544214102345,1.1730020079
1776408544221794204,0.284,,,,1776408544221794204,1.1737711938
1776408544229486063,0.314,,,,1776408544229486063,1.1745403797
1776408544237177922,0.328,,,,1776408544237177922,1.1753095656
1776408544244869781,0.336,,,,1776408544244869781,1.1760787515
1776408544252561640,0.355,,,,1776408544252561640,1.1768479374
1776408544260253499,0.365,,,,1776408544260253499,1.1776171233
1776408544267945358,0.36,,,,1776408544267945358,1.1783863092
1776408544275637278,0.368,,,,1776408544275637278,1.1791555012
1776408544283329137,0.392,,,,1776408544283329137,1.1799246871
1776408544291020996,0.397,,,,1776408544291020996,1.180693873
1776408544298712855,0.372,,,,1776408544298712855,1.1814630589
1776408544306404714,0.355,,,,1776408544306404714,1.1822322448
1776408544314096573,0.338,,,,1776408544314096573,1.1830014307
1776408544321788432,0.304,,,,1776408544321788432,1.1837706166
1776408544329480291,0.255,,,,1776408544329480291,1.1845398025
1776408544337172150,0.218,,,,1776408544337172150,1.1853089884
1776408544344864009,0.181,,,,1776408544344864009,1.1860781743
1776408544352555868,0.134,,,,1776408544352555868,1.1868473602
1776408544360247727,0.103,,,,1776408544360247727,1.1876165461
1776408544367939586,0.076,,,,1776408544367939586,1.188385732
1776408544375631445,0.053,,,,1776408544375631445,1.1891549179
1776408544383323304,0.044,,,,1776408544383323304,1.1899241038
1776408544391015163,0.031,,,,1776408544391015163,1.1906932897
1776408544398707022,0.024,,,,1776408544398707022,1.1914624756
1776408544406398881,0.009,,,,1776408544406398881,1.1922316615
1776408544414090740,0.019,,,,1776408544414090740,1.1930008474
1776408544421782599,0.034,,,,1776408544421782599,1.1937700333
1776408544429474458,0.009,,,,1776408544429474458,1.1945392192
1776408544437166317,0.009,,,,1776408544437166317,1.1953084051
1776408544444858176,0.049,,,,1776408544444858176,1.196077591
1776408544452550035,0.051,,,,1776408544452550035,1.1968467769
1776408544460241894,0.041,,,,1776408544460241894,1.1976159628
1776408544467933753,0.044,,,,1776408544467933753,1.1983851487
1776408544475625612,0.051,,,,1776408544475625612,1.1991543346
1776408544483317471,0.088,,,,1776408544483317471,1.1999235205
1776408544491009330,0.115,,,,1776408544491009330,1.2006927064
1776408544498701189,0.08,,,,1776408544498701189,1.2014618923
1776408544506393048,0.066,,,,1776408544506393048,1.2022310782
1776408544514084907,0.076,,,,1776408544514084907,1.2030002641
1776408544521776766,0.066,,,,1776408544521776766,1.20376945
1776408544529468625,0.068,,,,1776408544529468625,1.2045386359
1776408544537160484,0.068,,,,1776408544537160484,1.2053078218
1776408544544852343,0.073,,,,1776408544544852343,1.2060770077
1776408544552544202,0.105,,,,1776408544552544202,1.2068461936
1776408544560236061,0.088,,,,1776408544560236061,1.2076153795
1776408544567927920,0.031,,,,1776408544567927920,1.2083845654
1776408544575619779,0.041,,,,1776408544575619779,1.2091537513
1776408544583311638,0.083,,,,1776408544583311638,1.2099229372
1776408544591003497,0.073,,,,1776408544591003497,1.2106921231
1776408544598695356,0.061,,,,1776408544598695356,1.211461309
1776408544606387215,0.078,,,,1776408544606387215,1.2122304949
1776408544614079074,0.083,,,,1776408544614079074,1.2129996808
1776408544621770933,0.071,,,,1776408544621770933,1.2137688667
1776408544629462792,0.076,,,,1776408544629462792,1.2145380526
1776408544637154651,0.11,,,,1776408544637154651,1.2153072385
1776408544644846510,0.137,,,,1776408544644846510,1.2160764244
1776408544652538369,0.1,,,,1776408544652538369,1.2168456103
1776408544660230228,0.058,,,,1776408544660230228,1.2176147962
1776408544667922087,0.103,,,,1776408544667922087,1.2183839821
1776408544675613946,0.139,,,,1776408544675613946,1.219153168
1776408544683305805,0.083,,,,1776408544683305805,1.2199223539
1776408544690997664,0.031,,,,1776408544690997664,1.2206915398
1776408544698689523,0.046,,,,1776408544698689523,1.2214607257
1776408544706381382,0.078,,,,1776408544706381382,1.2222299116
1776408544714073241,0.08,,,,1776408544714073241,1.2229990975
1776408544721765100,0.078,,,,1776408544721765100,1.2237682834
1776408544729456959,0.09,,,,1776408544729456959,1.2245374693
1776408544737148818,0.076,,,,1776408544737148818,1.2253066552
1776408544744840677,0.12,,,,1776408544744840677,1.2260758411
1776408544752532536,0.429,,,,1776408544752532536,1.226845027
1776408544760224395,1.025,,,,1776408544760224395,1.2276142129
1776408544767916254,1.312,,,,1776408544767916254,1.2283833988
1776408544775608113,0.287,,,,1776408544775608113,1.2291525847
1776408544783299972,-1.383,,,,1776408544783299972,1.2299217706
1776408544790991831,-1.69,,,,1776408544790991831,1.2306909565
1776408544798683690,-0.858,,,,1776408544798683690,1.2314601424
1776408544806375549,-0.431,,,,1776408544806375549,1.2322293283
1776408544814067408,-0.218,,,,1776408544814067408,1.2329985142
1776408544821759267,0.154,,,,1776408544821759267,1.2337677001
1776408544829451126,0.223,,,,1776408544829451126,1.234536886
1776408544837143046,0.127,75.0,,,1776408544837143046,1.235306078
1776408544844834905,0.213,,,,1776408544844834905,1.2360752639
1776408544852526764,0.255,,,,1776408544852526764,1.2368444498
1776408544860218623,0.196,,,,1776408544860218623,1.2376136357
1776408544867910482,0.225,,,,1776408544867910482,1.2383828216
1776408544875602341,0.257,,,,1776408544875602341,1.2391520075
1776408544883294200,0.208,,,,1776408544883294200,1.2399211934
1776408544890986059,0.213,,,,1776408544890986059,1.2406903793
1776408544898677918,0.26,,,,1776408544898677918,1.2414595652
1776408544906369777,0.26,,,,1776408544906369777,1.2422287511
1776408544914061636,0.252,,793.0,,1776408544914061636,1.242997937
1776408544921753495,0.25,,,,1776408544921753495,1.2437671229
1776408544929445354,0.238,,,,1776408544929445354,1.2445363088
1776408544937137213,0.242,,,,1776408544937137213,1.2453054947
1776408544944829072,0.267,,,,1776408544944829072,1.2460746806
1776408544952520931,0.284,,,,1776408544952520931,1.2468438665
1776408544960212790,0.301,,,,1776408544960212790,1.2476130524
1776408544967904649,0.333,,,,1776408544967904649,1.2483822383
1776408544975596508,0.348,,,,1776408544975596508,1.2491514242
1776408544983288367,0.326,,,,1776408544983288367,1.2499206101
1776408544990980226,0.314,,,,1776408544990980226,1.250689796
1776408544998672085,0.299,,,,1776408544998672085,1.2514589819
1776408545006363944,0.257,,,,1776408545006363944,1.2522281678
1776408545014055803,0.213,,,,1776408545014055803,1.2529973537
1776408545021747662,0.179,,,,1776408545021747662,1.2537665396
1776408545029439521,0.144,,,,1776408545029439521,1.2545357255
1776408545037131380,0.112,,,,1776408545037131380,1.2553049114
1776408545044823239,0.063,,,,1776408545044823239,1.2560740973
1776408545052515098,0.009,,,,1776408545052515098,1.2568432832
1776408545060206957,-0.022,,,,1776408545060206957,1.2576124691
1776408545067898816,-0.034,,,,1776408545067898816,1.258381655
1776408545075590675,-0.036,,,,1776408545075590675,1.2591508409
1776408545083282534,-0.046,,,,1776408545083282534,1.2599200268
1776408545090974393,-0.073,,,,1776408545090974393,1.2606892127
1776408545098666252,-0.085,,,,1776408545098666252,1.2614583986
1776408545106358111,-0.073,,,,1776408545106358111,1.2622275845
1776408545114049970,-0.061,,,,1776408545114049970,1.2629967704
1776408545121741829,-0.051,,,,1776408545121741829,1.2637659563
1776408545129433688,-0.034,,,,1776408545129433688,1.2645351422
1776408545137125547,-0.017,,,,1776408545137125547,1.2653043281
1776408545144817406,-0.004,,,,1776408545144817406,1.266073514
1776408545152509265,0.014,,,,1776408545152509265,1.2668426999
1776408545160201124,0.026,,,,1776408545160201124,1.2676118858
1776408545167892983,0.024,,,,1776408545167892983,1.2683810717
1776408545175584842,0.024,,,,1776408545175584842,1.2691502576
1776408545183276701,0.026,,,,1776408545183276701,1.2699194435
1776408545190968560,0.029,,,,1776408545190968560,1.2706886294
1776408545198660419,0.031,,,,1776408545198660419,1.2714578153
1776408545206352278,0.031,,,,1776408545206352278,1.2722270012
1776408545214044137,0.031,,,,1776408545214044137,1.2729961871
1776408545221735996,0.029,,,,1776408545221735996,1.273765373
1776408545229427855,0.022,,,,1776408545229427855,1.2745345589
1776408545237119714,0.029,,,,1776408545237119714,1.2753037448
1776408545244811573,0.034,,,,1776408545244811573,1.2760729307
1776408545252503432,0.029,,,,1776408545252503432,1.2768421166
1776408545260195291,0.036,,,,1776408545260195291,1.2776113025
1776408545267887150,0.049,,,,1776408545267887150,1.2783804884
1776408545275579009,0.041,,,,1776408545275579009,1.2791496743
1776408545283270868,0.039,,,,1776408545283270868,1.2799188602
1776408545290962727,0.061,,,,1776408545290962727,1.2806880461
1776408545298654586,0.073,,,,1776408545298654586,1.281457232
1776408545306346445,0.071,,,,1776408545306346445,1.2822264179
1776408545314038304,0.088,,,,1776408545314038304,1.2829956038
1776408545321730163,0.1,,,,1776408545321730163,1.2837647897
1776408545329422022,0.076,,,,1776408545329422022,1.2845339756
1776408545337113881,0.053,,,,1776408545337113881,1.2853031615
1776408545344805740,0.044,,,,1776408545344805740,1.2860723474
1776408545352497599,0.036,,,,1776408545352497599,1.2868415333
1776408545360189458,0.046,,,,1776408545360189458,1.2876107192
1776408545367881317,0.051,,,,1776408545367881317,1.2883799051
1776408545375573176,0.044,,,,1776408545375573176,1.289149091
1776408545383265035,0.051,,,,1776408545383265035,1.2899182769
1776408545390956894,0.058,,,,1776408545390956894,1.2906874628
1776408545398648814,0.076,76.0,,,1776408545398648814,1.2914566548
1776408545406340673,0.287,,,,1776408545406340673,1.2922258407
1776408545414032532,0.9,,,,1776408545414032532,1.2929950266
1776408545421724391,1.491,,,,1776408545421724391,1.2937642125
1776408545429416250,0.878,,,,1776408545429416250,1.2945333984
1776408545437108109,-0.966,,,,1776408545437108109,1.2953025843
1776408545444799968,-1.889,,,,1776408545444799968,1.2960717702
1776408545452491827,-1.123,,,,1776408545452491827,1.2968409561
1776408545460183686,-0.434,,,,1776408545460183686,1.297610142
1776408545467875545,-0.277,,,,1776408545467875545,1.2983793279
1776408545475567404,0.076,,,,1776408545475567404,1.2991485138
1776408545483259263,0.301,,,,1776408545483259263,1.2999176997
1776408545490951122,0.181,,,,1776408545490951122,1.3006868856
1776408545498642981,0.169,,,,1776408545498642981,1.3014560715
1776408545506334840,0.269,,,,1776408545506334840,1.3022252574
1776408545514026699,0.257,,,,1776408545514026699,1.3029944433
1776408545521718558,0.23,,,,1776408545521718558,1.3037636292
1776408545529410417,0.252,,,,1776408545529410417,1.3045328151
1776408545537102276,0.269,,,,1776408545537102276,1.305302001
1776408545544794135,0.291,,,,1776408545544794135,1.3060711869
1776408545552485994,0.299,,,,1776408545552485994,1.3068403728
1776408545560177853,0.277,,,,1776408545560177853,1.3076095587
1776408545567869712,0.277,,,,1776408545567869712,1.3083787446
1776408545575561571,0.299,,,,1776408545575561571,1.3091479305
1776408545583253430,0.299,,,,1776408545583253430,1.3099171164
1776408545590945289,0.299,,,,1776408545590945289,1.3106863023
1776408545598637148,0.323,,,,1776408545598637148,1.3114554882
1776408545606329007,0.338,,,,1776408545606329007,1.3122246741
1776408545614020866,0.348,,,,1776408545614020866,1.31299386
1776408545621712725,0.368,,,,1776408545621712725,1.3137630459
1776408545629404584,0.382,,,,1776408545629404584,1.3145322318
1776408545637096443,0.39,,,,1776408545637096443,1.3153014177
1776408545644788302,0.37,,,,1776408545644788302,1.3160706036
1776408545652480161,0.336,,739.0,,1776408545652480161,1.3168397895
1776408545660172020,0.323,,,,1776408545660172020,1.3176089754
1776408545667863879,0.294,,,,1776408545667863879,1.3183781613
1776408545675555738,0.245,,,,1776408545675555738,1.3191473472
1776408545683247597,0.218,,,,1776408545683247597,1.3199165331
1776408545690939456,0.193,,,,1776408545690939456,1.320685719
1776408545698631315,0.142,,,,1776408545698631315,1.3214549049
1776408545706323174,0.073,,,,1776408545706323174,1.3222240908
1776408545714015033,0.034,,,,1776408545714015033,1.3229932767
1776408545721706892,0.034,,,,1776408545721706892,1.3237624626
1776408545729398751,-0.017,,,,1776408545729398751,1.3245316485
1776408545737090610,-0.058,,,,1776408545737090610,1.3253008344
1776408545744782469,-0.007,,,,1776408545744782469,1.3260700203
1776408545752474328,0.002,,,,1776408545752474328,1.3268392062
1776408545760166187,-0.034,,,,1776408545760166187,1.3276083921
1776408545767858046,-0.002,,,,1776408545767858046,1.328377578
1776408545775549905,0.039,,,,1776408545775549905,1.3291467639
1776408545783241764,0.024,,,,1776408545783241764,1.3299159498
1776408545790933623,0.017,,,,1776408545790933623,1.3306851357
1776408545798625482,0.041,,,,1776408545798625482,1.3314543216
1776408545806317341,0.046,,,,1776408545806317341,1.3322235075
1776408545814009200,0.046,,,,1776408545814009200,1.3329926934
1776408545821701059,0.08,,,,1776408545821701059,1.3337618793
1776408545829392918,0.095,,,,1776408545829392918,1.3345310652
1776408545837084777,0.071,,,,1776408545837084777,1.3353002511
1776408545844776636,0.041,,,,1776408545844776636,1.336069437
1776408545852468495,0.039,,,,1776408545852468495,1.3368386229
1776408545860160354,0.066,,,,1776408545860160354,1.3376078088
1776408545867852213,0.068,,,,1776408545867852213,1.3383769947
1776408545875544072,0.039,,,,1776408545875544072,1.3391461806
1776408545883235931,0.036,,,,1776408545883235931,1.3399153665
1776408545890927790,0.049,,,,1776408545890927790,1.3406845524
1776408545898619649,0.041,,,,1776408545898619649,1.3414537383
1776408545906311508,0.066,,,,1776408545906311508,1.3422229242
1776408545914003367,0.09,,,,1776408545914003367,1.3429921101
1776408545921695226,0.066,,,,1776408545921695226,1.343761296
1776408545929387085,0.046,,,,1776408545929387085,1.3445304819
1776408545937078944,0.049,,,,1776408545937078944,1.3452996678
1776408545944770803,0.041,,,,1776408545944770803,1.3460688537
1776408545952462662,0.034,,,,1776408545952462662,1.3468380396
1776408545960154582,0.061,,,,1776408545960154582,1.3476072316
1776408545967846441,0.071,,,,1776408545967846441,1.3483764175
1776408545975538300,0.044,,,,1776408545975538300,1.3491456034
1776408545983230159,0.049,,,,1776408545983230159,1.3499147893
1776408545990922018,0.08,,,,1776408545990922018,1.3506839752
1776408545998613877,0.095,,,,1776408545998613877,1.3514531611
1776408546006305736,0.107,,,,1776408546006305736,1.352222347
1776408546013997595,0.117,,,,1776408546013997595,1.3529915329
1776408546021689454,0.083,,,,1776408546021689454,1.3537607188
1776408546029381313,0.036,,,,1776408546029381313,1.3545299047
1776408546037073172,0.029,,,,1776408546037073172,1.3552990906
1776408546044765031,0.029,,,,1776408546044765031,1.3560682765
1776408546052456890,0.031,,,,1776408546052456890,1.3568374624
1776408546060148749,0.044,,,,1776408546060148749,1.3576066483
1776408546067840608,0.036,,,,1776408546067840608,1.3583758342
1776408546075532467,0.031,,,,1776408546075532467,1.3591450201
1776408546083224326,0.053,,,,1776408546083224326,1.359914206
1776408546090916185,0.179,,,,1776408546090916185,1.3606833919
1776408546098608044,0.642,,,,1776408546098608044,1.3614525778
1776408546106299903,1.349,,,,1776408546106299903,1.3622217637
1776408546113991762,1.28,,,,1776408546113991762,1.3629909496
1776408546121683621,-0.296,,,,1776408546121683621,1.3637601355
1776408546129375480,-1.791,,,,1776408546129375480,1.3645293214
1776408546137067339,-1.496,,,,1776408546137067339,1.3652985073
1776408546144759198,-0.583,,,,1776408546144759198,1.3660676932
1776408546152451057,-0.296,,,,1776408546152451057,1.3668368791
1776408546160142916,-0.036,,,,1776408546160142916,1.367606065
1776408546167834775,0.282,,,,1776408546167834775,1.3683752509
1776408546175526634,0.247,,,,1776408546175526634,1.3691444368
1776408546183218493,0.181,,,,1776408546183218493,1.3699136227
1776408546190910352,0.267,,,,1776408546190910352,1.3706828086
1776408546198602211,0.272,,,,1776408546198602211,1.3714519945
1776408546206294070,0.235,,,,1776408546206294070,1.3722211804
1776408546213985929,0.26,,,,1776408546213985929,1.3729903663
1776408546221677788,0.277,,,,1776408546221677788,1.3737595522
1776408546229369647,0.274,,,,1776408546229369647,1.3745287381
1776408546237061506,0.287,,,,1776408546237061506,1.375297924
1776408546244753365,0.299,,,,1776408546244753365,1.3760671099
1776408546252445224,0.301,,,,1776408546252445224,1.3768362958
1776408546260137083,0.304,,,,1776408546260137083,1.3776054817
1776408546267828942,0.309,,,,1776408546267828942,1.3783746676
1776408546275520801,0.323,,,,1776408546275520801,1.3791438535
1776408546283212660,0.35,,,,1776408546283212660,1.3799130394
1776408546290904519,0.358,,,,1776408546290904519,1.3806822253
1776408546298596378,0.333,,,,1776408546298596378,1.3814514112
1776408546306288237,0.326,,,,1776408546306288237,1.3822205971
1776408546313980096,0.35,,,,1776408546313980096,1.382989783
1776408546321671955,0.375,,,,1776408546321671955,1.3837589689
1776408546329363814,0.365,,,,1776408546329363814,1.3845281548
1776408546337055673,0.338,,,,1776408546337055673,1.3852973407
1776408546344747532,0.321,,,,1776408546344747532,1.3860665266
1776408546352439391,0.304,,,,1776408546352439391,1.3868357125
1776408546360131250,0.267,,,,1776408546360131250,1.3876048984
1776408546367823109,0.218,,715.0,,1776408546367823109,1.3883740843
1776408546375514968,0.171,,,,1776408546375514968,1.3891432702
1776408546383206827,0.139,,,,1776408546383206827,1.3899124561
1776408546390898686,0.1,,,,1776408546390898686,1.390681642
1776408546398590545,0.049,,,,1776408546398590545,1.3914508279
1776408546406282404,0.014,,,,1776408546406282404,1.3922200138
1776408546413974263,0.002,,,,1776408546413974263,1.3929891997
1776408546421666122,-0.014,,,,1776408546421666122,1.3937583856
1776408546429357981,-0.029,,,,1776408546429357981,1.3945275715
1776408546437049840,-0.029,,,,1776408546437049840,1.3952967574
1776408546444741699,-0.041,,,,1776408546444741699,1.3960659433
1776408546452433558,-0.053,,,,1776408546452433558,1.3968351292
1776408546460125417,-0.046,,,,1776408546460125417,1.3976043151
1776408546467817276,-0.031,,,,1776408546467817276,1.398373501
1776408546475509135,-0.022,,,,1776408546475509135,1.3991426869
1776408546483200994,-0.017,,,,1776408546483200994,1.3999118728
1776408546490892853,-0.014,,,,1776408546490892853,1.4006810587
1776408546498584712,0.002,,,,1776408546498584712,1.4014502446
1776408546506276571,0.007,,,,1776408546506276571,1.4022194305
1776408546513968430,0.002,,,,1776408546513968430,1.4029886164
1776408546521660352,0.022,77.0,,,1776408546521660352,1.4037578086
1776408546529352142,0.039,,,,1776408546529352142,1.4045269876
1776408546537043932,0.034,,,,1776408546537043932,1.4052961666
1776408546544735722,0.029,,,,1776408546544735722,1.4060653456
1776408546552427512,0.026,,,,1776408546552427512,1.4068345246
1776408546560119302,0.012,,,,1776408546560119302,1.4076037036
1776408546567811092,0.002,,,,1776408546567811092,1.4083728826
1776408546575502882,0.0,,,,1776408546575502882,1.4091420616
1776408546583194672,0.0,,,,1776408546583194672,1.4099112406
1776408546590886462,-0.004,,,,1776408546590886462,1.4106804196
1776408546598578252,0.004,,,,1776408546598578252,1.4114495986
1776408546606270042,0.022,,,,1776408546606270042,1.4122187776
1776408546613961832,0.014,,,,1776408546613961832,1.4129879566
1776408546621653622,-0.002,,,,1776408546621653622,1.4137571356
1776408546629345412,0.012,,,,1776408546629345412,1.4145263146
1776408546637037202,0.026,,,,1776408546637037202,1.4152954936
1776408546644728992,0.022,,,,1776408546644728992,1.4160646726
1776408546652420782,0.026,,,,1776408546652420782,1.4168338516
1776408546660112572,0.034,,,,1776408546660112572,1.4176030306
1776408546667804362,0.034,,,,1776408546667804362,1.4183722096
1776408546675496152,0.034,,,,1776408546675496152,1.4191413886
1776408546683187942,0.044,,,,1776408546683187942,1.4199105676
1776408546690879732,0.063,,,,1776408546690879732,1.4206797466
1776408546698571522,0.078,,,,1776408546698571522,1.4214489256
1776408546706263312,0.083,,,,1776408546706263312,1.4222181046
1776408546713955102,0.078,,,,1776408546713955102,1.4229872836
1776408546721646892,0.078,,,,1776408546721646892,1.4237564626
1776408546729338682,0.071,,,,1776408546729338682,1.4245256416
1776408546737030472,0.046,,,,1776408546737030472,1.4252948206
1776408546744722262,0.026,,,,1776408546744722262,1.4260639996
1776408546752414052,0.031,,,,1776408546752414052,1.4268331786
1776408546760105842,0.039,,,,1776408546760105842,1.4276023576
1776408546767797632,0.036,,,,1776408546767797632,1.4283715366
1776408546775489422,0.029,,,,1776408546775489422,1.4291407156
1776408546783181212,0.053,,,,1776408546783181212,1.4299098946
1776408546790873002,0.112,,,,1776408546790873002,1.4306790736
1776408546798564792,0.355,,,,1776408546798564792,1.4314482526
1776408546806256582,1.025,,,,1776408546806256582,1.4322174316
1776408546813948372,1.555,,,,1776408546813948372,1.4329866106
1776408546821640162,0.637,,,,1776408546821640162,1.4337557896
1776408546829331952,-1.278,,,,1776408546829331952,1.4345249686
1776408546837023742,-1.872,,,,1776408546837023742,1.4352941476
1776408546844715532,-0.991,,,,1776408546844715532,1.4360633266
1776408546852407322,-0.439,,,,1776408546852407322,1.4368325056
1776408546860099112,-0.272,,,,1776408546860099112,1.4376016846
1776408546867790902,0.122,,,,1776408546867790902,1.4383708636
1776408546875482692,0.306,,,,1776408546875482692,1.4391400426
1776408546883174482,0.211,,,,1776408546883174482,1.4399092216
1776408546890866272,0.233,,,,1776408546890866272,1.4406784006
1776408546898558062,0.287,,,,1776408546898558062,1.4414475796
1776408546906249852,0.247,,,,1776408546906249852,1.4422167586
1776408546913941642,0.264,,,,1776408546913941642,1.4429859376
1776408546921633432,0.314,,,,1776408546921633432,1.4437551166
1776408546929325222,0.294,,,,1776408546929325222,1.4445242956
1776408546937017012,0.279,,,,1776408546937017012,1.4452934746
1776408546944708802,0.294,,,,1776408546944708802,1.4460626536
1776408546952400592,0.282,,,,1776408546952400592,1.4468318326
1776408546960092382,0.272,,,,1776408546960092382,1.4476010116
1776408546967784172,0.284,,,,1776408546967784172,1.4483701906
1776408546975475962,0.289,,,,1776408546975475962,1.4491393696
1776408546983167752,0.309,,,,1776408546983167752,1.4499085486
1776408546990859542,0.336,,,,1776408546990859542,1.4506777276
1776408546998551332,0.343,,,,1776408546998551332,1.4514469066
1776408547006243122,0.353,,,,1776408547006243122,1.4522160856
1776408547013934912,0.363,,,,1776408547013934912,1.4529852646
1776408547021626702,0.377,,,,1776408547021626702,1.4537544436
1776408547029318492,0.385,,,,1776408547029318492,1.4545236226
1776408547037010282,0.363,,,,1776408547037010282,1.4552928016
1776408547044702072,0.321,,,,1776408547044702072,1.4560619806
1776408547052393862,0.284,,,,1776408547052393862,1.4568311596
1776408547060085652,0.272,,,,1776408547060085652,1.4576003386
1776408547067777442,0.235,,,,1776408547067777442,1.4583695176
1776408547075469232,0.159,,704.0,,1776408547075469232,1.4591386966
1776408547083161034,0.132,,,,1776408547083161034,1.4599078768
1776408547090852824,0.122,,,,1776408547090852824,1.4606770558
1776408547098544614,0.051,,,,1776408547098544614,1.4614462348
1776408547106236404,0.004,,,,1776408547106236404,1.4622154138
1776408547113928194,0.004,,,,1776408547113928194,1.4629845928
1776408547121619984,-0.014,,,,1776408547121619984,1.4637537718
1776408547129311774,-0.036,,,,1776408547129311774,1.4645229508
1776408547137003564,-0.044,,,,1776408547137003564,1.4652921298
1776408547144695354,-0.046,,,,1776408547144695354,1.4660613088
1776408547152387144,-0.041,,,,1776408547152387144,1.4668304878
1776408547160078934,-0.029,,,,1776408547160078934,1.4675996668
1776408547167770724,-0.024,,,,1776408547167770724,1.4683688458
1776408547175462514,-0.009,,,,1776408547175462514,1.4691380248
1776408547183154304,-0.007,,,,1776408547183154304,1.4699072038
1776408547190846094,0.0,,,,1776408547190846094,1.4706763828
1776408547198537884,0.022,,,,1776408547198537884,1.4714455618
1776408547206229674,0.017,,,,1776408547206229674,1.4722147408
1776408547213921464,0.012,,,,1776408547213921464,1.4729839198
1776408547221613254,0.044,,,,1776408547221613254,1.4737530988
1776408547229305044,0.051,,,,1776408547229305044,1.4745222778
1776408547236996834,0.036,,,,1776408547236996834,1.4752914568
1776408547244688624,0.036,,,,1776408547244688624,1.4760606358
1776408547252380414,0.034,,,,1776408547252380414,1.4768298148
1776408547260072204,0.031,,,,1776408547260072204,1.4775989938
1776408547267763994,0.049,,,,1776408547267763994,1.4783681728
1776408547275455784,0.051,,,,1776408547275455784,1.4791373518
1776408547283147574,0.041,,,,1776408547283147574,1.4799065308
1776408547290839364,0.044,,,,1776408547290839364,1.4806757098
1776408547298531154,0.039,,,,1776408547298531154,1.4814448888
1776408547306222944,0.029,,,,1776408547306222944,1.4822140678
1776408547313914734,0.031,,,,1776408547313914734,1.4829832468
1776408547321606524,0.044,,,,1776408547321606524,1.4837524258
1776408547329298314,0.049,,,,1776408547329298314,1.4845216048
1776408547336990104,0.034,,,,1776408547336990104,1.4852907838
1776408547344681894,0.026,,,,1776408547344681894,1.4860599628
1776408547352373684,0.049,,,,1776408547352373684,1.4868291418
1776408547360065474,0.073,,,,1776408547360065474,1.4875983208
