time,ecg,hr,rr,marker,norm_time
1747018350024859629,-0.051,73.0,880.0,,0.0
1747018350032561173,-0.051,,,,0.0007701544
1747018350040262717,-0.053,,,,0.0015403088
1747018350047964261,-0.051,,,,0.0023104632
1747018350055665805,-0.049,,,,0.0030806176
1747018350063367349,-0.046,,,,0.003850772
1747018350071068893,-0.044,,,,0.0046209264
1747018350078770437,-0.046,,,,0.0053910808
1747018350086471981,-0.049,,,,0.0061612352
1747018350094173525,-0.041,,,,0.0069313896
1747018350101875069,-0.049,,,,0.007701544
1747018350109576613,-0.051,,,,0.0084716984
1747018350117278157,-0.041,,,,0.0092418528
1747018350124979701,-0.046,,,,0.0100120072
1747018350132681245,-0.051,,,,0.0107821616
1747018350140382789,-0.049,,,,0.011552316
1747018350148084333,-0.044,,,,0.0123224704
1747018350155785877,-0.036,,,,0.0130926248
1747018350163487421,-0.049,,,,0.0138627792
1747018350171188965,-0.053,,,,0.0146329336
1747018350178890509,-0.044,,,,0.015403088
1747018350186592053,-0.041,,,,0.0161732424
1747018350194293597,-0.046,,,,0.0169433968
1747018350201995141,-0.049,,,,0.0177135512
1747018350209696685,-0.041,,,,0.0184837056
1747018350217398229,-0.036,,,,0.01925386
1747018350225099773,-0.051,,,,0.0200240144
1747018350232801317,-0.056,,,,0.0207941688
1747018350240502861,-0.031,,,,0.0215643232
1747018350248204405,-0.039,,,,0.0223344776
1747018350255905949,-0.073,,,,0.023104632
1747018350263607493,-0.066,,,,0.0238747864
1747018350271309037,-0.039,,,,0.0246449408
1747018350279010581,-0.049,,,,0.0254150952
1747018350286712125,-0.046,,,,0.0261852496
1747018350294413669,-0.034,,,,0.026955404
1747018350302115213,-0.053,,,,0.0277255584
1747018350309816757,-0.063,,,,0.0284957128
1747018350317518301,-0.049,,,,0.0292658672
1747018350325219845,-0.051,,,,0.0300360216
1747018350332921389,-0.056,,,,0.030806176
1747018350340622933,-0.046,,,,0.0315763304
1747018350348324477,-0.046,,,,0.0323464848
1747018350356026021,-0.053,,,,0.0331166392
1747018350363727565,-0.056,,,,0.0338867936
1747018350371429109,-0.046,,,,0.034656948
1747018350379130653,0.002,,,,0.0354271024
1747018350386832197,0.176,,,,0.0361972568
1747018350394533741,0.483,,,,0.0369674112
1747018350402235285,0.608,,,,0.0377375656
1747018350409936829,0.215,,,,0.03850772
1747018350417638373,-0.25,,,,0.0392778744
1747018350425339917,-0.191,,,,0.0400480288
1747018350433041461,-0.026,,,,0.0408181832
1747018350440743005,-0.142,,,,0.0415883376
1747018350448444549,-0.184,,,,0.042358492
1747018350456146093,-0.098,,,,0.0431286464
1747018350463847637,-0.1,,,,0.0438988008
1747018350471549181,-0.12,,,,0.0446689552
1747018350479250725,-0.095,,,,0.0454391096
1747018350486952269,-0.095,,,,0.046209264
1747018350494653813,-0.1,,,,0.0469794184
1747018350502355357,-0.09,,,,0.0477495728
1747018350510056901,-0.085,,,,0.0485197272
1747018350517758445,-0.083,,,,0.0492898816
1747018350525459989,-0.08,,,,0.050060036
1747018350533161533,-0.068,,,,0.0508301904
1747018350540863077,-0.068,,,,0.0516003448
1747018350548564621,-0.078,,,,0.0523704992
1747018350556266165,-0.068,,,,0.0531406536
1747018350563967709,-0.053,,,,0.053910808
1747018350571669253,-0.051,,,,0.0546809624
1747018350579370797,-0.046,,,,0.0554511168
1747018350587072397,-0.044,,,,0.0562212768
1747018350594773941,-0.036,,,,0.0569914312
1747018350602475485,-0.034,,,,0.0577615856
1747018350610177029,-0.034,,,,0.05853174
1747018350617878573,-0.014,,,,0.0593018944
1747018350625580117,0.007,,,,0.0600720488
1747018350633281661,0.017,,,,0.0608422032
1747018350640983205,0.014,,,,0.0616123576
1747018350648684749,0.024,,,,0.062382512
1747018350656386293,0.056,,,,0.0631526664
1747018350664087837,0.063,,,,0.0639228208
1747018350671789381,0.051,,,,0.0646929752
1747018350679490925,0.039,,,,0.0654631296
1747018350687192469,0.004,,,,0.066233284
1747018350694894013,-0.046,,,,0.0670034384
1747018350702595557,-0.088,,,,0.0677735928
1747018350710297101,-0.11,,,,0.0685437472
1747018350717998645,-0.142,,,,0.0693139016
1747018350725700189,-0.164,,,,0.070084056
1747018350733401733,-0.154,,,,0.0708542104
1747018350741103277,-0.157,,,,0.0716243648
1747018350748804821,-0.169,,,,0.0723945192
1747018350756506365,-0.157,,,,0.0731646736
1747018350764207909,-0.149,,,,0.073934828
1747018350771909453,-0.152,,,,0.0747049824
1747018350779610997,-0.144,,,,0.0754751368
1747018350787312541,-0.152,,,,0.0762452912
1747018350795014085,-0.159,,,,0.0770154456
1747018350802715629,-0.149,,,,0.0777856
1747018350810417173,-0.137,,,,0.0785557544
1747018350818118717,-0.144,,,,0.0793259088
1747018350825820261,-0.159,,,,0.0800960632
1747018350833521805,-0.149,,,,0.0808662176
1747018350841223349,-0.144,,,,0.081636372
1747018350848924893,-0.154,,,,0.0824065264
1747018350856626437,-0.154,,,,0.0831766808
1747018350864327981,-0.161,,,,0.0839468352
1747018350872029525,-0.166,,,,0.0847169896
1747018350879731069,-0.161,,,,0.085487144
1747018350887432613,-0.159,,,,0.0862572984
1747018350895134157,-0.161,,,,0.0870274528
1747018350902835701,-0.169,,,,0.0877976072
1747018350910537245,-0.171,,,,0.0885677616
1747018350918238789,-0.164,,,,0.089337916
1747018350925940333,-0.159,,,,0.0901080704
1747018350933641877,-0.164,,,,0.0908782248
1747018350941343421,-0.171,,,,0.0916483792
1747018350949044965,-0.169,,,,0.0924185336
1747018350956746509,-0.166,,,,0.093188688
1747018350964448053,-0.166,,,,0.0939588424
1747018350972149597,-0.171,,,,0.0947289968
1747018350979851141,-0.181,,,,0.0954991512
1747018350987552685,-0.184,,,,0.0962693056
1747018350995254229,-0.171,,,,0.09703946
1747018351002955773,-0.176,,,,0.0978096144
1747018351010657317,-0.184,,,,0.0985797688
1747018351018358861,-0.184,,,,0.0993499232
1747018351026060405,-0.184,,,,0.1001200776
1747018351033761949,-0.188,,,,0.100890232
1747018351041463493,-0.196,,,,0.1016603864
1747018351049165037,-0.196,,,,0.1024305408
1747018351056866581,-0.186,,,,0.1032006952
1747018351064568125,-0.191,,,,0.1039708496
1747018351072269669,-0.201,,,,0.104741004
1747018351079971213,-0.206,,,,0.1055111584
1747018351087672757,-0.198,,,,0.1062813128
1747018351095374301,-0.196,,,,0.1070514672
1747018351103075845,-0.218,,,,0.1078216216
1747018351110777389,-0.223,,,,0.108591776
1747018351118478933,-0.201,,,,0.1093619304
1747018351126180477,-0.196,,,,0.1101320848
1747018351133882021,-0.198,,,,0.1109022392
1747018351141583565,-0.196,,,,0.1116723936
1747018351149285165,-0.198,72.0,833.0,,0.1124425536
1747018351156986709,-0.208,,,,0.113212708
1747018351164688253,-0.225,,,,0.1139828624
1747018351172389797,-0.225,,,,0.1147530168
1747018351180091341,-0.223,,,,0.1155231712
1747018351187792885,-0.228,,,,0.1162933256
1747018351195494429,-0.223,,,,0.11706348
1747018351203195973,-0.218,,,,0.1178336344
1747018351210897517,-0.233,,,,0.1186037888
1747018351218599061,-0.235,,,,0.1193739432
1747018351226300605,-0.211,,,,0.1201440976
1747018351234002149,-0.157,,,,0.120914252
1747018351241703693,-0.019,,,,0.1216844064
1747018351249405237,0.26,,,,0.1224545608
1747018351257106781,0.458,,,,0.1232247152
1747018351264808325,0.149,,,,0.1239948696
1747018351272509869,-0.38,,,,0.124765024
1747018351280211413,-0.404,,,,0.1255351784
1747018351287912957,-0.203,,,,0.1263053328
1747018351295614501,-0.282,,,,0.1270754872
1747018351303316045,-0.353,,,,0.1278456416
1747018351311017589,-0.282,,,,0.128615796
1747018351318719133,-0.274,,,,0.1293859504
1747018351326420677,-0.294,,,,0.1301561048
1747018351334122221,-0.26,,,,0.1309262592
1747018351341823765,-0.257,,,,0.1316964136
1747018351349525309,-0.269,,,,0.132466568
1747018351357226853,-0.247,,,,0.1332367224
1747018351364928397,-0.238,,,,0.1340068768
1747018351372629941,-0.235,,,,0.1347770312
1747018351380331485,-0.23,,,,0.1355471856
1747018351388033029,-0.235,,,,0.13631734
1747018351395734573,-0.22,,,,0.1370874944
1747018351403436117,-0.203,,,,0.1378576488
1747018351411137661,-0.208,,,,0.1386278032
1747018351418839205,-0.203,,,,0.1393979576
1747018351426540749,-0.191,,,,0.140168112
1747018351434242293,-0.186,,,,0.1409382664
1747018351441943837,-0.181,,,,0.1417084208
1747018351449645381,-0.169,,,,0.1424785752
1747018351457346925,-0.152,,,,0.1432487296
1747018351465048469,-0.139,,,,0.144018884
1747018351472750013,-0.125,,,,0.1447890384
1747018351480451557,-0.103,,,,0.1455591928
1747018351488153101,-0.088,,,,0.1463293472
1747018351495854645,-0.078,,,,0.1470995016
1747018351503556189,-0.056,,,,0.147869656
1747018351511257733,-0.041,,,,0.1486398104
1747018351518959277,-0.036,,,,0.1494099648
1747018351526660821,-0.022,,,,0.1501801192
1747018351534362365,-0.031,,,,0.1509502736
1747018351542063909,-0.09,,,,0.151720428
1747018351549765453,-0.147,,,,0.1524905824
1747018351557466997,-0.186,,,,0.1532607368
1747018351565168541,-0.225,,,,0.1540308912
1747018351572870085,-0.245,,,,0.1548010456
1747018351580571629,-0.255,,,,0.1555712
1747018351588273173,-0.26,,,,0.1563413544
1747018351595974717,-0.252,,,,0.1571115088
1747018351603676261,-0.233,,,,0.1578816632
1747018351611377805,-0.23,,,,0.1586518176
1747018351619079349,-0.242,,,,0.159421972
1747018351626780893,-0.24,,,,0.1601921264
1747018351634482437,-0.22,,,,0.1609622808
1747018351642183981,-0.218,,,,0.1617324352
1747018351649885525,-0.208,,,,0.1625025896
1747018351657587069,-0.198,,,,0.163272744
1747018351665288613,-0.201,,,,0.1640428984
1747018351672990157,-0.196,,,,0.1648130528
1747018351680691701,-0.186,,,,0.1655832072
1747018351688393245,-0.193,,,,0.1663533616
1747018351696094789,-0.191,,,,0.167123516
1747018351703796333,-0.184,,,,0.1678936704
1747018351711497933,-0.184,,,,0.1686638304
1747018351719199826,-0.184,,,,0.1694340197
1747018351726901719,-0.174,,,,0.170204209
1747018351734603612,-0.169,,,,0.1709743983
1747018351742305505,-0.176,,,,0.1717445876
1747018351750007398,-0.181,,,,0.1725147769
1747018351757709291,-0.174,,,,0.1732849662
1747018351765411184,-0.166,,,,0.1740551555
1747018351773113077,-0.159,,,,0.1748253448
1747018351780814970,-0.157,,,,0.1755955341
1747018351788516863,-0.164,,,,0.1763657234
1747018351796218756,-0.164,,,,0.1771359127
1747018351803920649,-0.157,,,,0.177906102
1747018351811622542,-0.154,,,,0.1786762913
1747018351819324435,-0.154,,,,0.1794464806
1747018351827026328,-0.152,,,,0.1802166699
1747018351834728221,-0.147,,,,0.1809868592
1747018351842430114,-0.154,,,,0.1817570485
1747018351850132007,-0.154,,,,0.1825272378
1747018351857833900,-0.144,,,,0.1832974271
1747018351865535793,-0.144,,,,0.1840676164
1747018351873237686,-0.142,,,,0.1848378057
1747018351880939579,-0.137,,,,0.185607995
1747018351888641472,-0.139,,,,0.1863781843
1747018351896343365,-0.142,,,,0.1871483736
1747018351904045258,-0.147,,,,0.1879185629
1747018351911747151,-0.149,,,,0.1886887522
1747018351919449044,-0.144,,,,0.1894589415
1747018351927150937,-0.134,,,,0.1902291308
1747018351934852830,-0.117,,,,0.1909993201
1747018351942554723,-0.112,,,,0.1917695094
1747018351950256616,-0.12,,,,0.1925396987
1747018351957958509,-0.132,,,,0.193309888
1747018351965660402,-0.139,,,,0.1940800773
1747018351973362295,-0.132,,,,0.1948502666
1747018351981064188,-0.125,,,,0.1956204559
1747018351988766081,-0.127,,,,0.1963906452
1747018351996467974,-0.13,,,,0.1971608345
1747018352004169867,-0.13,,,,0.1979310238
1747018352011871760,-0.127,,,,0.1987012131
1747018352019573653,-0.127,,,,0.1994714024
1747018352027275546,-0.12,,,,0.2002415917
1747018352034977439,-0.078,,,,0.201011781
1747018352042679332,0.063,,,,0.2017819703
1747018352050381225,0.355,,,,0.2025521596
1747018352058083118,0.554,,,,0.2033223489
1747018352065785011,0.255,,,,0.2040925382
1747018352073486904,-0.267,,,,0.2048627275
1747018352081188797,-0.314,,,,0.2056329168
1747018352088890690,-0.11,,,,0.2064031061
1747018352096592583,-0.169,,,,0.2071732954
1747018352104294476,-0.247,,,,0.2079434847
1747018352111996369,-0.169,,,,0.208713674
1747018352119698262,-0.152,,,,0.2094838633
1747018352127400155,-0.184,,,,0.2102540526
1747018352135102048,-0.157,,,,0.2110242419
1747018352142803941,-0.137,,,,0.2117944312
1747018352150505834,-0.157,,,,0.2125646205
1747018352158207727,-0.152,,,,0.2133348098
1747018352165909620,-0.137,,,,0.2141049991
1747018352173611513,-0.13,,,,0.2148751884
1747018352181313406,-0.117,,,,0.2156453777
1747018352189015299,-0.115,,,,0.216415567
1747018352196717192,-0.12,,,,0.2171857563
1747018352204419085,-0.12,,,,0.2179559456
1747018352212120978,-0.11,,,,0.2187261349
1747018352219822871,-0.103,,,,0.2194963242
1747018352227524764,-0.095,,,,0.2202665135
1747018352235226657,-0.085,,,,0.2210367028
1747018352242928550,-0.083,,,,0.2218068921
1747018352250630443,-0.078,,,,0.2225770814
1747018352258332336,-0.068,,,,0.2233472707
1747018352266034229,-0.061,,,,0.22411746
1747018352273736136,-0.044,72.0,868.0,,0.2248876507
1747018352281437750,-0.024,,900.0,,0.2256578121
1747018352289139364,-0.002,,,,0.2264279735
1747018352296840978,0.017,,,,0.2271981349
1747018352304542592,0.024,,,,0.2279682963
1747018352312244206,0.041,,,,0.2287384577
1747018352319945820,0.066,,,,0.2295086191
1747018352327647434,0.058,,,,0.2302787805
1747018352335349048,0.026,,,,0.2310489419
1747018352343050662,-0.014,,,,0.2318191033
1747018352350752276,-0.063,,,,0.2325892647
1747018352358453890,-0.105,,,,0.2333594261
1747018352366155504,-0.139,,,,0.2341295875
1747018352373857118,-0.164,,,,0.2348997489
1747018352381558732,-0.171,,,,0.2356699103
1747018352389260346,-0.164,,,,0.2364400717
1747018352396961960,-0.154,,,,0.2372102331
1747018352404663574,-0.161,,,,0.2379803945
1747018352412365188,-0.161,,,,0.2387505559
1747018352420066802,-0.147,,,,0.2395207173
1747018352427768416,-0.142,,,,0.2402908787
1747018352435470030,-0.139,,,,0.2410610401
1747018352443171644,-0.13,,,,0.2418312015
1747018352450873258,-0.125,,,,0.2426013629
1747018352458574872,-0.127,,,,0.2433715243
1747018352466276486,-0.125,,,,0.2441416857
1747018352473978100,-0.117,,,,0.2449118471
1747018352481679714,-0.115,,,,0.2456820085
1747018352489381328,-0.112,,,,0.2464521699
1747018352497082942,-0.11,,,,0.2472223313
1747018352504784556,-0.112,,,,0.2479924927
1747018352512486170,-0.115,,,,0.2487626541
1747018352520187784,-0.12,,,,0.2495328155
1747018352527889398,-0.115,,,,0.2503029769
1747018352535591012,-0.105,,,,0.2510731383
1747018352543292626,-0.11,,,,0.2518432997
1747018352550994240,-0.115,,,,0.2526134611
1747018352558695854,-0.105,,,,0.2533836225
1747018352566397468,-0.1,,,,0.2541537839
1747018352574099082,-0.107,,,,0.2549239453
1747018352581800696,-0.112,,,,0.2556941067
1747018352589502310,-0.107,,,,0.2564642681
1747018352597203924,-0.103,,,,0.2572344295
1747018352604905538,-0.105,,,,0.2580045909
1747018352612607152,-0.1,,,,0.2587747523
1747018352620308766,-0.1,,,,0.2595449137
1747018352628010380,-0.103,,,,0.2603150751
1747018352635711994,-0.095,,,,0.2610852365
1747018352643413608,-0.09,,,,0.2618553979
1747018352651115222,-0.098,,,,0.2626255593
1747018352658816836,-0.105,,,,0.2633957207
1747018352666518450,-0.103,,,,0.2641658821
1747018352674220064,-0.088,,,,0.2649360435
1747018352681921678,-0.085,,,,0.2657062049
1747018352689623292,-0.107,,,,0.2664763663
1747018352697324906,-0.11,,,,0.2672465277
1747018352705026520,-0.088,,,,0.2680166891
1747018352712728134,-0.085,,,,0.2687868505
1747018352720429748,-0.098,,,,0.2695570119
1747018352728131362,-0.098,,,,0.2703271733
1747018352735832976,-0.095,,,,0.2710973347
1747018352743534590,-0.105,,,,0.2718674961
1747018352751236204,-0.105,,,,0.2726376575
1747018352758937818,-0.093,,,,0.2734078189
1747018352766639432,-0.083,,,,0.2741779803
1747018352774341046,-0.076,,,,0.2749481417
1747018352782042660,-0.078,,,,0.2757183031
1747018352789744274,-0.08,,,,0.2764884645
1747018352797445888,-0.085,,,,0.2772586259
1747018352805147502,-0.103,,,,0.2780287873
1747018352812849116,-0.103,,,,0.2787989487
1747018352820550730,-0.09,,,,0.2795691101
1747018352828252344,-0.085,,,,0.2803392715
1747018352835953987,-0.083,,,,0.2811094358
1747018352843655531,-0.08,,,,0.2818795902
1747018352851357075,-0.083,,,,0.2826497446
1747018352859058619,-0.085,,,,0.283419899
1747018352866760163,-0.076,,,,0.2841900534
1747018352874461707,-0.036,,,,0.2849602078
1747018352882163251,0.112,,,,0.2857303622
1747018352889864795,0.414,,,,0.2865005166
1747018352897566339,0.601,,,,0.287270671
1747018352905267883,0.287,,,,0.2880408254
1747018352912969427,-0.225,,,,0.2888109798
1747018352920670971,-0.264,,,,0.2895811342
1747018352928372515,-0.068,,,,0.2903512886
1747018352936074059,-0.12,,,,0.291121443
1747018352943775603,-0.186,,,,0.2918915974
1747018352951477147,-0.12,,,,0.2926617518
1747018352959178691,-0.11,,,,0.2934319062
1747018352966880235,-0.142,,,,0.2942020606
1747018352974581779,-0.12,,,,0.294972215
1747018352982283323,-0.103,,,,0.2957423694
1747018352989984867,-0.107,,,,0.2965125238
1747018352997686411,-0.093,,,,0.2972826782
1747018353005387955,-0.085,,,,0.2980528326
1747018353013089499,-0.09,,,,0.298822987
1747018353020791043,-0.09,,,,0.2995931414
1747018353028492587,-0.083,,,,0.3003632958
1747018353036194131,-0.076,,,,0.3011334502
1747018353043895675,-0.076,,,,0.3019036046
1747018353051597219,-0.071,,,,0.302673759
1747018353059298763,-0.063,,,,0.3034439134
1747018353067000307,-0.058,,,,0.3042140678
1747018353074701851,-0.051,,,,0.3049842222
1747018353082403395,-0.051,,,,0.3057543766
1747018353090104939,-0.041,,,,0.306524531
1747018353097806483,-0.024,,,,0.3072946854
1747018353105508027,-0.017,,,,0.3080648398
1747018353113209571,-0.002,,,,0.3088349942
1747018353120911115,0.014,,,,0.3096051486
1747018353128612659,0.031,,,,0.310375303
1747018353136314203,0.044,,,,0.3111454574
1747018353144015747,0.056,,,,0.3119156118
1747018353151717291,0.08,,,,0.3126857662
1747018353159418835,0.1,,,,0.3134559206
1747018353167120379,0.09,,,,0.314226075
1747018353174821923,0.066,,,,0.3149962294
1747018353182523467,0.026,,,,0.3157663838
1747018353190225011,-0.022,,,,0.3165365382
1747018353197926555,-0.066,,,,0.3173066926
1747018353205628099,-0.098,,,,0.318076847
1747018353213329643,-0.112,,,,0.3188470014
1747018353221031187,-0.12,,,,0.3196171558
1747018353228732731,-0.122,,,,0.3203873102
1747018353236434275,-0.11,,,,0.3211574646
1747018353244135819,-0.107,,,,0.321927619
1747018353251837363,-0.11,,,,0.3226977734
1747018353259538907,-0.105,,,,0.3234679278
1747018353267240451,-0.095,,,,0.3242380822
1747018353274941995,-0.083,,,,0.3250082366
1747018353282643539,-0.083,,,,0.325778391
1747018353290345083,-0.085,,,,0.3265485454
1747018353298046627,-0.08,,,,0.3273186998
1747018353305748171,-0.073,,,,0.3280888542
1747018353313449715,-0.071,,,,0.3288590086
1747018353321151259,-0.073,,,,0.329629163
1747018353328852803,-0.076,,,,0.3303993174
1747018353336554347,-0.068,,,,0.3311694718
1747018353344255891,-0.066,,,,0.3319396262
1747018353351957435,-0.068,,,,0.3327097806
1747018353359658979,-0.068,,,,0.333479935
1747018353367360523,-0.063,,,,0.3342500894
1747018353375062067,-0.056,,,,0.3350202438
1747018353382763611,-0.058,,,,0.3357903982
1747018353390465155,-0.061,,,,0.3365605526
1747018353398166759,-0.058,72.0,856.0,,0.337330713
1747018353405868303,-0.061,,,,0.3381008674
1747018353413569847,-0.058,,,,0.3388710218
1747018353421271391,-0.056,,,,0.3396411762
1747018353428972935,-0.061,,,,0.3404113306
1747018353436674479,-0.053,,,,0.341181485
1747018353444376023,-0.053,,,,0.3419516394
1747018353452077567,-0.061,,,,0.3427217938
1747018353459779111,-0.058,,,,0.3434919482
1747018353467480655,-0.053,,,,0.3442621026
1747018353475182199,-0.049,,,,0.345032257
1747018353482883743,-0.044,,,,0.3458024114
1747018353490585287,-0.044,,,,0.3465725658
1747018353498286831,-0.051,,,,0.3473427202
1747018353505988375,-0.056,,,,0.3481128746
1747018353513689919,-0.049,,,,0.348883029
1747018353521391463,-0.046,,,,0.3496531834
1747018353529093007,-0.051,,,,0.3504233378
1747018353536794551,-0.051,,,,0.3511934922
1747018353544496095,-0.049,,,,0.3519636466
1747018353552197639,-0.046,,,,0.352733801
1747018353559899183,-0.044,,,,0.3535039554
1747018353567600727,-0.049,,,,0.3542741098
1747018353575302271,-0.049,,,,0.3550442642
1747018353583003815,-0.046,,,,0.3558144186
1747018353590705359,-0.039,,,,0.356584573
1747018353598406903,-0.034,,,,0.3573547274
1747018353606108447,-0.044,,,,0.3581248818
1747018353613809991,-0.049,,,,0.3588950362
1747018353621511535,-0.046,,,,0.3596651906
1747018353629213079,-0.051,,,,0.360435345
1747018353636914623,-0.044,,,,0.3612054994
1747018353644616167,-0.031,,,,0.3619756538
1747018353652317711,-0.029,,,,0.3627458082
1747018353660019255,-0.029,,,,0.3635159626
1747018353667720799,-0.029,,,,0.364286117
1747018353675422343,-0.034,,,,0.3650562714
1747018353683123887,-0.041,,,,0.3658264258
1747018353690825431,-0.046,,,,0.3665965802
1747018353698526975,-0.049,,,,0.3673667346
1747018353706228519,-0.049,,,,0.368136889
1747018353713930063,-0.044,,,,0.3689070434
1747018353721631607,-0.036,,,,0.3696771978
1747018353729333151,-0.039,,,,0.3704473522
1747018353737034695,-0.046,,,,0.3712175066
1747018353744736239,-0.046,,,,0.371987661
1747018353752437783,-0.029,,,,0.3727578154
1747018353760139327,0.012,,,,0.3735279698
1747018353767840871,0.149,,,,0.3742981242
1747018353775542415,0.436,,,,0.3750682786
1747018353783243959,0.628,,,,0.375838433
1747018353790945503,0.328,,,,0.3766085874
1747018353798647047,-0.184,,,,0.3773787418
1747018353806348591,-0.228,,,,0.3781488962
1747018353814050135,-0.036,,,,0.3789190506
1747018353821751679,-0.103,,,,0.379689205
1747018353829453223,-0.164,,,,0.3804593594
1747018353837154767,-0.088,,,,0.3812295138
1747018353844856311,-0.09,,,,0.3819996682
1747018353852557855,-0.117,,,,0.3827698226
1747018353860259399,-0.083,,,,0.383539977
1747018353867960943,-0.071,,,,0.3843101314
1747018353875662487,-0.078,,,,0.3850802858
1747018353883364031,-0.068,,,,0.3858504402
1747018353891065575,-0.066,,,,0.3866205946
1747018353898767119,-0.073,,,,0.387390749
1747018353906468663,-0.063,,,,0.3881609034
1747018353914170207,-0.051,,,,0.3889310578
1747018353921871751,-0.053,,,,0.3897012122
1747018353929573295,-0.044,,,,0.3904713666
1747018353937274839,-0.039,,,,0.391241521
1747018353944976383,-0.049,,,,0.3920116754
1747018353952677927,-0.036,,,,0.3927818298
1747018353960379527,-0.019,71.0,801.0,,0.3935519898
1747018353968081071,-0.017,,,,0.3943221442
1747018353975782615,-0.007,,,,0.3950922986
1747018353983484159,0.002,,,,0.395862453
1747018353991185703,0.007,,,,0.3966326074
1747018353998887247,0.026,,,,0.3974027618
1747018354006588791,0.044,,,,0.3981729162
1747018354014290335,0.053,,,,0.3989430706
1747018354021991879,0.071,,,,0.399713225
1747018354029693423,0.093,,,,0.4004833794
1747018354037394967,0.103,,,,0.4012535338
1747018354045096511,0.105,,,,0.4020236882
1747018354052798055,0.107,,,,0.4027938426
1747018354060499599,0.098,,,,0.403563997
1747018354068201143,0.058,,,,0.4043341514
1747018354075902687,0.009,,,,0.4051043058
1747018354083604231,-0.036,,,,0.4058744602
1747018354091305775,-0.061,,,,0.4066446146
1747018354099007319,-0.078,,,,0.407414769
1747018354106708863,-0.095,,,,0.4081849234
1747018354114410407,-0.09,,,,0.4089550778
1747018354122111951,-0.083,,,,0.4097252322
1747018354129813495,-0.088,,,,0.4104953866
1747018354137515039,-0.08,,,,0.411265541
1747018354145216583,-0.078,,,,0.4120356954
1747018354152918127,-0.078,,,,0.4128058498
1747018354160619671,-0.071,,,,0.4135760042
1747018354168321215,-0.068,,,,0.4143461586
1747018354176022759,-0.066,,,,0.415116313
1747018354183724303,-0.061,,,,0.4158864674
1747018354191425847,-0.063,,,,0.4166566218
1747018354199127391,-0.058,,,,0.4174267762
1747018354206828935,-0.044,,,,0.4181969306
1747018354214530479,-0.044,,,,0.418967085
1747018354222232023,-0.058,,,,0.4197372394
1747018354229933567,-0.058,,,,0.4205073938
1747018354237635111,-0.051,,,,0.4212775482
1747018354245336655,-0.058,,,,0.4220477026
1747018354253038199,-0.058,,,,0.422817857
1747018354260739743,-0.051,,,,0.4235880114
1747018354268441287,-0.049,,,,0.4243581658
1747018354276142831,-0.051,,,,0.4251283202
1747018354283844375,-0.049,,,,0.4258984746
1747018354291545919,-0.049,,,,0.426668629
1747018354299247463,-0.053,,,,0.4274387834
1747018354306949007,-0.058,,,,0.4282089378
1747018354314650551,-0.056,,,,0.4289790922
1747018354322352095,-0.053,,,,0.4297492466
1747018354330053639,-0.053,,,,0.430519401
1747018354337755183,-0.051,,,,0.4312895554
1747018354345456727,-0.053,,,,0.4320597098
1747018354353158271,-0.053,,,,0.4328298642
1747018354360859815,-0.049,,,,0.4336000186
1747018354368561359,-0.053,,,,0.434370173
1747018354376262903,-0.051,,,,0.4351403274
1747018354383964447,-0.046,,,,0.4359104818
1747018354391665991,-0.049,,,,0.4366806362
1747018354399367535,-0.051,,,,0.4374507906
1747018354407069079,-0.049,,,,0.438220945
1747018354414770623,-0.046,,,,0.4389910994
1747018354422472167,-0.046,,,,0.4397612538
1747018354430173711,-0.044,,,,0.4405314082
1747018354437875255,-0.046,,,,0.4413015626
1747018354445576799,-0.053,,,,0.442071717
1747018354453278343,-0.049,,,,0.4428418714
1747018354460979887,-0.039,,,,0.4436120258
1747018354468681431,-0.044,,,,0.4443821802
1747018354476382975,-0.053,,,,0.4451523346
1747018354484084519,-0.056,,,,0.445922489
1747018354491786063,-0.051,,,,0.4466926434
1747018354499487607,-0.049,,,,0.4474627978
1747018354507189151,-0.046,,,,0.4482329522
1747018354514890695,-0.049,,,,0.4490031066
1747018354522592295,-0.056,,,,0.4497732666
1747018354530293839,-0.056,,,,0.450543421
1747018354537995383,-0.051,,,,0.4513135754
1747018354545696927,-0.058,,,,0.4520837298
1747018354553398471,-0.053,,,,0.4528538842
1747018354561100015,-0.041,,,,0.4536240386
1747018354568801559,-0.046,,,,0.454394193
1747018354576503103,-0.049,,,,0.4551643474
1747018354584204647,-0.051,,,,0.4559345018
1747018354591906191,-0.058,,,,0.4567046562
1747018354599607735,-0.063,,,,0.4574748106
1747018354607309279,-0.061,,,,0.458244965
1747018354615010823,-0.056,,,,0.4590151194
1747018354622712367,-0.066,,,,0.4597852738
1747018354630413911,-0.071,,,,0.4605554282
1747018354638115455,-0.058,,,,0.4613255826
1747018354645816999,-0.058,,,,0.462095737
1747018354653518543,-0.068,,,,0.4628658914
1747018354661220087,-0.063,,,,0.4636360458
1747018354668921631,-0.034,,,,0.4644062002
1747018354676623175,0.08,,,,0.4651763546
1747018354684324719,0.338,,,,0.465946509
1747018354692026263,0.596,,,,0.4667166634
1747018354699727807,0.431,,,,0.4674868178
1747018354707429351,-0.112,,,,0.4682569722
1747018354715130895,-0.296,,,,0.4690271266
1747018354722832439,-0.095,,,,0.469797281
1747018354730533983,-0.105,,,,0.4705674354
1747018354738235527,-0.203,,,,0.4713375898
1747018354745937071,-0.147,,,,0.4721077442
1747018354753638615,-0.117,,,,0.4728778986
1747018354761340159,-0.157,,,,0.473648053
1747018354769041703,-0.147,,,,0.4744182074
1747018354776743247,-0.117,,,,0.4751883618
1747018354784444791,-0.122,,,,0.4759585162
1747018354792146335,-0.117,,,,0.4767286706
1747018354799847879,-0.107,,,,0.477498825
1747018354807549423,-0.122,,,,0.4782689794
1747018354815250967,-0.125,,,,0.4790391338
1747018354822952511,-0.112,,,,0.4798092882
1747018354830654055,-0.11,,,,0.4805794426
1747018354838355599,-0.107,,,,0.481349597
1747018354846057143,-0.107,,,,0.4821197514
1747018354853758687,-0.105,,,,0.4828899058
1747018354861460231,-0.1,,,,0.4836600602
1747018354869161775,-0.093,,,,0.4844302146
1747018354876863319,-0.085,,,,0.485200369
1747018354884564863,-0.085,,,,0.4859705234
1747018354892266407,-0.083,,,,0.4867406778
1747018354899967951,-0.066,,,,0.4875108322
1747018354907669495,-0.053,,,,0.4882809866
1747018354915371039,-0.044,,,,0.489051141
1747018354923072583,-0.034,,,,0.4898212954
1747018354930774127,-0.017,,,,0.4905914498
1747018354938475671,0.004,,,,0.4913616042
1747018354946177215,0.022,,,,0.4921317586
1747018354953878759,0.031,,,,0.492901913
1747018354961580303,0.029,,,,0.4936720674
1747018354969281847,0.017,,,,0.4944422218
1747018354976983391,-0.007,,,,0.4952123762
1747018354984684935,-0.061,,,,0.4959825306
1747018354992386479,-0.125,,,,0.496752685
1747018355000088023,-0.161,,,,0.4975228394
1747018355007789567,-0.181,,,,0.4982929938
1747018355015491111,-0.196,,,,0.4990631482
1747018355023192655,-0.206,,,,0.4998333026
1747018355030894199,-0.208,,,,0.500603457
1747018355038595743,-0.208,,,,0.5013736114
1747018355046297287,-0.203,,,,0.5021437658
1747018355053998831,-0.188,,,,0.5029139202
1747018355061700375,-0.186,,,,0.5036840746
1747018355069401919,-0.198,,,,0.504454229
1747018355077103463,-0.196,,,,0.5052243834
1747018355084805063,-0.191,71.0,839.0,,0.5059945434
1747018355092506607,-0.188,,,,0.5067646978
1747018355100208151,-0.186,,,,0.5075348522
1747018355107909695,-0.188,,,,0.5083050066
1747018355115611239,-0.193,,,,0.509075161
1747018355123312783,-0.191,,,,0.5098453154
1747018355131014327,-0.186,,,,0.5106154698
1747018355138715871,-0.188,,,,0.5113856242
1747018355146417415,-0.198,,,,0.5121557786
1747018355154118959,-0.193,,,,0.512925933
1747018355161820503,-0.191,,,,0.5136960874
1747018355169522047,-0.201,,,,0.5144662418
1747018355177223591,-0.198,,,,0.5152363962
1747018355184925135,-0.191,,,,0.5160065506
1747018355192626679,-0.193,,,,0.516776705
1747018355200328223,-0.198,,,,0.5175468594
1747018355208029767,-0.203,,,,0.5183170138
1747018355215731311,-0.193,,,,0.5190871682
1747018355223432855,-0.186,,,,0.5198573226
1747018355231134399,-0.196,,,,0.520627477
1747018355238835943,-0.196,,,,0.5213976314
1747018355246537487,-0.186,,,,0.5221677858
1747018355254239031,-0.188,,,,0.5229379402
1747018355261940575,-0.203,,,,0.5237080946
1747018355269642119,-0.201,,,,0.524478249
1747018355277343663,-0.184,,,,0.5252484034
1747018355285045207,-0.186,,,,0.5260185578
1747018355292746751,-0.198,,,,0.5267887122
1747018355300448295,-0.191,,,,0.5275588666
1747018355308149839,-0.188,,,,0.528329021
1747018355315851383,-0.198,,,,0.5290991754
1747018355323552927,-0.201,,,,0.5298693298
1747018355331254471,-0.188,,,,0.5306394842
1747018355338956015,-0.184,,,,0.5314096386
1747018355346657559,-0.191,,,,0.532179793
1747018355354359103,-0.191,,,,0.5329499474
1747018355362060647,-0.186,,,,0.5337201018
1747018355369762191,-0.188,,,,0.5344902562
1747018355377463735,-0.186,,,,0.5352604106
1747018355385165279,-0.191,,,,0.536030565
1747018355392866823,-0.193,,,,0.5368007194
1747018355400568367,-0.191,,,,0.5375708738
1747018355408269911,-0.186,,,,0.5383410282
1747018355415971455,-0.179,,,,0.5391111826
1747018355423672999,-0.176,,,,0.539881337
1747018355431374543,-0.184,,,,0.5406514914
1747018355439076087,-0.184,,,,0.5414216458
1747018355446777631,-0.186,,,,0.5421918002
1747018355454479175,-0.193,,,,0.5429619546
1747018355462180719,-0.191,,,,0.543732109
1747018355469882263,-0.184,,,,0.5445022634
1747018355477583807,-0.184,,,,0.5452724178
1747018355485285351,-0.191,,,,0.5460425722
1747018355492986895,-0.186,,,,0.5468127266
1747018355500688439,-0.179,,,,0.547582881
1747018355508389983,-0.191,,,,0.5483530354
1747018355516091527,-0.196,,,,0.5491231898
1747018355523793071,-0.164,,,,0.5498933442
1747018355531494615,-0.053,,,,0.5506634986
1747018355539196159,0.198,,,,0.551433653
1747018355546897703,0.473,,,,0.5522038074
1747018355554599247,0.355,,,,0.5529739618
1747018355562300791,-0.186,,,,0.5537441162
1747018355570002335,-0.434,,,,0.5545142706
1747018355577703879,-0.223,,,,0.555284425
1747018355585405423,-0.186,,,,0.5560545794
1747018355593106967,-0.301,,,,0.5568247338
1747018355600808511,-0.257,,,,0.5575948882
1747018355608510055,-0.218,,,,0.5583650426
1747018355616211599,-0.252,,,,0.559135197
1747018355623913143,-0.242,,,,0.5599053514
1747018355631614687,-0.206,,,,0.5606755058
1747018355639316231,-0.211,,,,0.5614456602
1747018355647017831,-0.22,,,,0.5622158202
1747018355654719375,-0.206,,,,0.5629859746
1747018355662420919,-0.198,,,,0.563756129
1747018355670122463,-0.193,,,,0.5645262834
1747018355677824007,-0.184,,,,0.5652964378
1747018355685525551,-0.181,,,,0.5660665922
1747018355693227095,-0.176,,,,0.5668367466
1747018355700928639,-0.169,,,,0.567606901
1747018355708630183,-0.169,,,,0.5683770554
1747018355716331727,-0.154,,,,0.5691472098
1747018355724033271,-0.137,,,,0.5699173642
1747018355731734815,-0.139,,,,0.5706875186
1747018355739436359,-0.137,,,,0.571457673
1747018355747137903,-0.122,,,,0.5722278274
1747018355754839447,-0.11,,,,0.5729979818
1747018355762540991,-0.093,,,,0.5737681362
1747018355770242535,-0.068,,,,0.5745382906
1747018355777944079,-0.056,,,,0.575308445
1747018355785645623,-0.044,,,,0.5760785994
1747018355793347167,-0.014,,,,0.5768487538
1747018355801048711,0.0,,,,0.5776189082
1747018355808750255,0.004,,,,0.5783890626
1747018355816451799,0.029,,,,0.579159217
1747018355824153343,0.024,,,,0.5799293714
1747018355831854887,-0.029,,,,0.5806995258
1747018355839556431,-0.088,,,,0.5814696802
1747018355847257975,-0.142,,,,0.5822398346
1747018355854959519,-0.188,,,,0.583009989
1747018355862661063,-0.213,,,,0.5837801434
1747018355870362607,-0.223,,,,0.5845502978
1747018355878064151,-0.218,,,,0.5853204522
1747018355885765695,-0.215,,,,0.5860906066
1747018355893467239,-0.215,,,,0.586860761
1747018355901168783,-0.208,,,,0.5876309154
1747018355908870327,-0.198,,,,0.5884010698
1747018355916571871,-0.193,,,,0.5891712242
1747018355924273415,-0.206,,,,0.5899413786
1747018355931974959,-0.206,,,,0.590711533
1747018355939676503,-0.188,,,,0.5914816874
1747018355947378047,-0.191,,,,0.5922518418
1747018355955079591,-0.193,,,,0.5930219962
1747018355962781135,-0.188,,,,0.5937921506
1747018355970482679,-0.186,,,,0.594562305
1747018355978184223,-0.181,,,,0.5953324594
1747018355985885767,-0.188,,,,0.5961026138
1747018355993587311,-0.193,,,,0.5968727682
1747018356001288855,-0.186,,,,0.5976429226
1747018356008990399,-0.186,,,,0.598413077
1747018356016691943,-0.181,,,,0.5991832314
1747018356024393487,-0.176,,,,0.5999533858
1747018356032095031,-0.181,,,,0.6007235402
1747018356039796575,-0.184,,,,0.6014936946
1747018356047498119,-0.181,,,,0.602263849
1747018356055199663,-0.179,,,,0.6030340034
1747018356062901207,-0.186,,,,0.6038041578
1747018356070602751,-0.186,,,,0.6045743122
1747018356078304295,-0.174,,,,0.6053444666
1747018356086005839,-0.171,,,,0.606114621
1747018356093707383,-0.171,,,,0.6068847754
1747018356101408927,-0.169,,,,0.6076549298
1747018356109110471,-0.169,,,,0.6084250842
1747018356116812015,-0.171,,,,0.6091952386
1747018356124513559,-0.164,,,,0.609965393
1747018356132215103,-0.157,,,,0.6107355474
1747018356139916647,-0.159,,,,0.6115057018
1747018356147618191,-0.161,,,,0.6122758562
1747018356155319735,-0.152,,,,0.6130460106
1747018356163021279,-0.154,,,,0.613816165
1747018356170722823,-0.164,,,,0.6145863194
1747018356178424367,-0.154,,,,0.6153564738
1747018356186125911,-0.149,,,,0.6161266282
1747018356193827455,-0.154,,,,0.6168967826
1747018356201528999,-0.149,,,,0.617666937
1747018356209230599,-0.144,72.0,886.0,,0.618437097
1747018356216932561,-0.142,,,,0.6192072932
1747018356224634523,-0.144,,,,0.6199774894
1747018356232336485,-0.147,,,,0.6207476856
1747018356240038447,-0.144,,,,0.6215178818
1747018356247740409,-0.144,,,,0.622288078
1747018356255442371,-0.13,,,,0.6230582742
1747018356263144333,-0.117,,,,0.6238284704
1747018356270846295,-0.117,,,,0.6245986666
1747018356278548257,-0.115,,,,0.6253688628
1747018356286250219,-0.122,,,,0.626139059
1747018356293952181,-0.134,,,,0.6269092552
1747018356301654143,-0.132,,,,0.6276794514
1747018356309356105,-0.122,,,,0.6284496476
1747018356317058067,-0.122,,,,0.6292198438
1747018356324760029,-0.132,,,,0.62999004
1747018356332461991,-0.127,,,,0.6307602362
1747018356340163953,-0.115,,,,0.6315304324
1747018356347865915,-0.12,,,,0.6323006286
1747018356355567877,-0.117,,,,0.6330708248
1747018356363269839,-0.093,,,,0.633841021
1747018356370971801,-0.026,,,,0.6346112172
1747018356378673763,0.159,,,,0.6353814134
1747018356386375725,0.463,,,,0.6361516096
1747018356394077687,0.547,,,,0.6369218058
1747018356401779649,0.09,,,,0.637692002
1747018356409481611,-0.353,,,,0.6384621982
1747018356417183573,-0.23,,,,0.6392323944
1747018356424885535,-0.085,,,,0.6400025906
1747018356432587497,-0.211,,,,0.6407727868
1747018356440289459,-0.213,,,,0.641542983
1747018356447991421,-0.139,,,,0.6423131792
1747018356455693383,-0.161,,,,0.6430833754
1747018356463395345,-0.171,,,,0.6438535716
1747018356471097307,-0.137,,,,0.6446237678
1747018356478799269,-0.134,,,,0.645393964
1747018356486501231,-0.144,,,,0.6461641602
1747018356494203193,-0.132,,,,0.6469343564
1747018356501905155,-0.122,,,,0.6477045526
1747018356509607117,-0.115,,,,0.6484747488
1747018356517309079,-0.103,,,,0.649244945
1747018356525011041,-0.103,,,,0.6500151412
1747018356532713003,-0.112,,,,0.6507853374
1747018356540414965,-0.105,,,,0.6515555336
1747018356548116927,-0.09,,,,0.6523257298
1747018356555818889,-0.08,,,,0.653095926
1747018356563520851,-0.08,,,,0.6538661222
1747018356571222813,-0.076,,,,0.6546363184
1747018356578924775,-0.066,,,,0.6554065146
1747018356586626737,-0.063,,,,0.6561767108
1747018356594328699,-0.061,,,,0.656946907
1747018356602030661,-0.039,,,,0.6577171032
1747018356609732623,-0.017,,,,0.6584872994
1747018356617434585,0.0,,,,0.6592574956
1747018356625136547,0.012,,,,0.6600276918
1747018356632838509,0.031,,,,0.660797888
1747018356640540471,0.049,,,,0.6615680842
1747018356648242433,0.056,,,,0.6623382804
1747018356655944395,0.068,,,,0.6631084766
1747018356663646357,0.068,,,,0.6638786728
1747018356671348319,0.034,,,,0.664648869
1747018356679050281,-0.017,,,,0.6654190652
1747018356686752243,-0.068,,,,0.6661892614
1747018356694454205,-0.107,,,,0.6669594576
1747018356702156167,-0.13,,,,0.6677296538
1747018356709858129,-0.142,,,,0.66849985
1747018356717560091,-0.147,,,,0.6692700462
1747018356725262053,-0.144,,,,0.6700402424
1747018356732964015,-0.149,,,,0.6708104386
1747018356740665977,-0.149,,,,0.6715806348
1747018356748367939,-0.139,,,,0.672350831
1747018356756069901,-0.132,,,,0.6731210272
1747018356763771863,-0.13,,,,0.6738912234
1747018356771473889,-0.12,,,,0.674661426
1747018356779175433,-0.112,,,,0.6754315804
1747018356786876977,-0.122,,,,0.6762017348
1747018356794578521,-0.117,,,,0.6769718892
1747018356802280065,-0.105,,,,0.6777420436
1747018356809981609,-0.1,,,,0.678512198
1747018356817683153,-0.098,,,,0.6792823524
1747018356825384697,-0.1,,,,0.6800525068
1747018356833086241,-0.098,,,,0.6808226612
1747018356840787785,-0.088,,,,0.6815928156
1747018356848489329,-0.098,,,,0.68236297
1747018356856190873,-0.105,,,,0.6831331244
1747018356863892417,-0.09,,,,0.6839032788
1747018356871593961,-0.083,,,,0.6846734332
1747018356879295505,-0.093,,,,0.6854435876
1747018356886997049,-0.093,,,,0.686213742
1747018356894698593,-0.08,,,,0.6869838964
1747018356902400137,-0.085,,,,0.6877540508
1747018356910101681,-0.095,,,,0.6885242052
1747018356917803225,-0.093,,,,0.6892943596
1747018356925504769,-0.085,,,,0.690064514
1747018356933206313,-0.076,,,,0.6908346684
1747018356940907857,-0.076,,,,0.6916048228
1747018356948609401,-0.085,,,,0.6923749772
1747018356956310945,-0.08,,,,0.6931451316
1747018356964012489,-0.073,,,,0.693915286
1747018356971714033,-0.08,,,,0.6946854404
1747018356979415577,-0.083,,,,0.6954555948
1747018356987117121,-0.073,,,,0.6962257492
1747018356994818665,-0.068,,,,0.6969959036
1747018357002520209,-0.071,,,,0.697766058
1747018357010221753,-0.071,,,,0.6985362124
1747018357017923297,-0.063,,,,0.6993063668
1747018357025624841,-0.063,,,,0.7000765212
1747018357033326385,-0.063,,,,0.7008466756
1747018357041027929,-0.071,,,,0.70161683
1747018357048729473,-0.076,,,,0.7023869844
1747018357056431017,-0.066,,,,0.7031571388
1747018357064132561,-0.053,,,,0.7039272932
1747018357071834105,-0.051,,,,0.7046974476
1747018357079535649,-0.063,,,,0.705467602
1747018357087237193,-0.073,,,,0.7062377564
1747018357094938737,-0.066,,,,0.7070079108
1747018357102640281,-0.058,,,,0.7077780652
1747018357110341825,-0.056,,,,0.7085482196
1747018357118043369,-0.046,,,,0.709318374
1747018357125744913,-0.039,,,,0.7100885284
1747018357133446457,-0.034,,,,0.7108586828
1747018357141148001,-0.041,,,,0.7116288372
1747018357148849545,-0.058,,,,0.7123989916
1747018357156551089,-0.061,,,,0.713169146
1747018357164252633,-0.056,,,,0.7139393004
1747018357171954177,-0.056,,,,0.7147094548
1747018357179655721,-0.053,,,,0.7154796092
1747018357187357265,-0.053,,,,0.7162497636
1747018357195058809,-0.049,,,,0.717019918
1747018357202760353,-0.044,,,,0.7177900724
1747018357210461897,-0.046,,,,0.7185602268
1747018357218163441,-0.034,,,,0.7193303812
1747018357225864985,0.004,,,,0.7201005356
1747018357233566529,0.132,,,,0.72087069
1747018357241268073,0.407,,,,0.7216408444
1747018357248969617,0.637,,,,0.7224109988
1747018357256671161,0.407,,,,0.7231811532
1747018357264372705,-0.132,,,,0.7239513076
1747018357272074249,-0.247,,,,0.724721462
1747018357279775793,-0.041,,,,0.7254916164
1747018357287477337,-0.076,,,,0.7262617708
1747018357295178881,-0.161,,,,0.7270319252
1747018357302880425,-0.098,,,,0.7278020796
1747018357310581969,-0.076,,,,0.728572234
1747018357318283513,-0.095,,,,0.7293423884
1747018357325985057,-0.08,,,,0.7301125428
1747018357333686657,-0.068,71.0,911.0,,0.7308827028
1747018357341388201,-0.073,,855.0,,0.7316528572
1747018357349089745,-0.066,,,,0.7324230116
1747018357356791289,-0.046,,,,0.733193166
1747018357364492833,-0.044,,,,0.7339633204
1747018357372194377,-0.049,,,,0.7347334748
1747018357379895921,-0.036,,,,0.7355036292
1747018357387597465,-0.029,,,,0.7362737836
1747018357395299009,-0.031,,,,0.737043938
1747018357403000553,-0.024,,,,0.7378140924
1747018357410702097,-0.017,,,,0.7385842468
1747018357418403641,-0.017,,,,0.7393544012
1747018357426105185,-0.012,,,,0.7401245556
1747018357433806729,-0.002,,,,0.74089471
1747018357441508273,0.0,,,,0.7416648644
1747018357449209817,0.002,,,,0.7424350188
1747018357456911361,0.019,,,,0.7432051732
1747018357464612905,0.034,,,,0.7439753276
1747018357472314449,0.049,,,,0.744745482
1747018357480015993,0.066,,,,0.7455156364
1747018357487717537,0.078,,,,0.7462857908
1747018357495419081,0.095,,,,0.7470559452
1747018357503120625,0.115,,,,0.7478260996
1747018357510822169,0.125,,,,0.748596254
1747018357518523713,0.13,,,,0.7493664084
1747018357526225257,0.12,,,,0.7501365628
1747018357533926801,0.085,,,,0.7509067172
1747018357541628345,0.029,,,,0.7516768716
1747018357549329889,-0.019,,,,0.752447026
1747018357557031433,-0.049,,,,0.7532171804
1747018357564732977,-0.076,,,,0.7539873348
1747018357572434521,-0.09,,,,0.7547574892
1747018357580136065,-0.078,,,,0.7555276436
1747018357587837609,-0.068,,,,0.756297798
1747018357595539153,-0.076,,,,0.7570679524
1747018357603240697,-0.076,,,,0.7578381068
1747018357610942241,-0.066,,,,0.7586082612
1747018357618643785,-0.061,,,,0.7593784156
1747018357626345329,-0.066,,,,0.76014857
1747018357634046873,-0.058,,,,0.7609187244
1747018357641748417,-0.049,,,,0.7616888788
1747018357649449961,-0.049,,,,0.7624590332
1747018357657151505,-0.041,,,,0.7632291876
1747018357664853049,-0.041,,,,0.763999342
1747018357672554593,-0.053,,,,0.7647694964
1747018357680256137,-0.051,,,,0.7655396508
1747018357687957681,-0.044,,,,0.7663098052
1747018357695659225,-0.046,,,,0.7670799596
1747018357703360769,-0.051,,,,0.767850114
1747018357711062313,-0.049,,,,0.7686202684
1747018357718763857,-0.039,,,,0.7693904228
1747018357726465401,-0.044,,,,0.7701605772
1747018357734166945,-0.046,,,,0.7709307316
1747018357741868489,-0.041,,,,0.771700886
1747018357749570033,-0.044,,,,0.7724710404
1747018357757271577,-0.046,,,,0.7732411948
1747018357764973121,-0.044,,,,0.7740113492
1747018357772674665,-0.044,,,,0.7747815036
1747018357780376209,-0.044,,,,0.775551658
1747018357788077753,-0.051,,,,0.7763218124
1747018357795779297,-0.051,,,,0.7770919668
1747018357803480841,-0.039,,,,0.7778621212
1747018357811182385,-0.036,,,,0.7786322756
1747018357818883929,-0.046,,,,0.77940243
1747018357826585473,-0.051,,,,0.7801725844
1747018357834287017,-0.044,,,,0.7809427388
1747018357841988561,-0.041,,,,0.7817128932
1747018357849690105,-0.046,,,,0.7824830476
1747018357857391649,-0.041,,,,0.783253202
1747018357865093193,-0.044,,,,0.7840233564
1747018357872794737,-0.053,,,,0.7847935108
1747018357880496281,-0.049,,,,0.7855636652
1747018357888197825,-0.036,,,,0.7863338196
1747018357895899425,-0.039,,,,0.7871039796
1747018357903600969,-0.044,,,,0.787874134
1747018357911302513,-0.044,,,,0.7886442884
1747018357919004057,-0.046,,,,0.7894144428
1747018357926705601,-0.049,,,,0.7901845972
1747018357934407145,-0.046,,,,0.7909547516
1747018357942108689,-0.041,,,,0.791724906
1747018357949810233,-0.041,,,,0.7924950604
1747018357957511777,-0.041,,,,0.7932652148
1747018357965213321,-0.053,,,,0.7940353692
1747018357972914865,-0.046,,,,0.7948055236
1747018357980616409,-0.034,,,,0.795575678
1747018357988317953,-0.044,,,,0.7963458324
1747018357996019497,-0.051,,,,0.7971159868
1747018358003721041,-0.046,,,,0.7978861412
1747018358011422585,-0.034,,,,0.7986562956
1747018358019124129,-0.024,,,,0.79942645
1747018358026825673,-0.029,,,,0.8001966044
1747018358034527217,-0.031,,,,0.8009667588
1747018358042228761,-0.034,,,,0.8017369132
1747018358049930305,-0.049,,,,0.8025070676
1747018358057631849,-0.049,,,,0.803277222
1747018358065333393,-0.046,,,,0.8040473764
1747018358073034937,-0.046,,,,0.8048175308
1747018358080736481,-0.044,,,,0.8055876852
1747018358088438025,-0.044,,,,0.8063578396
1747018358096139569,-0.041,,,,0.807127994
1747018358103841113,-0.044,,,,0.8078981484
1747018358111542657,-0.049,,,,0.8086683028
1747018358119244201,-0.044,,,,0.8094384572
1747018358126945745,-0.019,,,,0.8102086116
1747018358134647289,0.112,,,,0.810978766
1747018358142348833,0.392,,,,0.8117489204
1747018358150050377,0.62,,,,0.8125190748
1747018358157751921,0.402,,,,0.8132892292
1747018358165453465,-0.127,,,,0.8140593836
1747018358173155009,-0.252,,,,0.814829538
1747018358180856553,-0.051,,,,0.8155996924
1747018358188558097,-0.088,,,,0.8163698468
1747018358196259641,-0.174,,,,0.8171400012
1747018358203961185,-0.107,,,,0.8179101556
1747018358211662729,-0.09,,,,0.81868031
1747018358219364273,-0.117,,,,0.8194504644
1747018358227065817,-0.103,,,,0.8202206188
1747018358234767361,-0.083,,,,0.8209907732
1747018358242468905,-0.085,,,,0.8217609276
1747018358250170449,-0.078,,,,0.822531082
1747018358257871993,-0.063,,,,0.8233012364
1747018358265573537,-0.066,,,,0.8240713908
1747018358273275081,-0.068,,,,0.8248415452
1747018358280976625,-0.058,,,,0.8256116996
1747018358288678169,-0.058,,,,0.826381854
1747018358296379713,-0.058,,,,0.8271520084
1747018358304081257,-0.053,,,,0.8279221628
1747018358311782801,-0.049,,,,0.8286923172
1747018358319484345,-0.041,,,,0.8294624716
1747018358327185889,-0.041,,,,0.830232626
1747018358334887433,-0.031,,,,0.8310027804
1747018358342588977,-0.024,,,,0.8317729348
1747018358350290521,-0.024,,,,0.8325430892
1747018358357992065,-0.012,,,,0.8333132436
1747018358365693609,0.004,,,,0.834083398
1747018358373395153,0.012,,,,0.8348535524
1747018358381096697,0.026,,,,0.8356237068
1747018358388798241,0.044,,,,0.8363938612
1747018358396499785,0.058,,,,0.8371640156
1747018358404201329,0.073,,,,0.83793417
1747018358411902873,0.088,,,,0.8387043244
1747018358419604417,0.088,,,,0.8394744788
1747018358427305961,0.071,,,,0.8402446332
1747018358435007505,0.046,,,,0.8410147876
1747018358442709049,0.007,,,,0.841784942
1747018358450410593,-0.044,,,,0.8425550964
1747018358458112193,-0.076,71.0,843.0,,0.8433252564
1747018358465813737,-0.1,,,,0.8440954108
1747018358473515281,-0.115,,,,0.8448655652
1747018358481216825,-0.107,,,,0.8456357196
1747018358488918369,-0.103,,,,0.846405874
1747018358496619913,-0.105,,,,0.8471760284
1747018358504321457,-0.11,,,,0.8479461828
1747018358512023001,-0.105,,,,0.8487163372
1747018358519724545,-0.09,,,,0.8494864916
1747018358527426089,-0.083,,,,0.850256646
1747018358535127633,-0.083,,,,0.8510268004
1747018358542829177,-0.083,,,,0.8517969548
1747018358550530721,-0.083,,,,0.8525671092
1747018358558232265,-0.076,,,,0.8533372636
1747018358565933809,-0.073,,,,0.854107418
1747018358573635353,-0.071,,,,0.8548775724
1747018358581336897,-0.063,,,,0.8556477268
1747018358589038441,-0.066,,,,0.8564178812
1747018358596739985,-0.071,,,,0.8571880356
1747018358604441529,-0.073,,,,0.85795819
1747018358612143073,-0.071,,,,0.8587283444
1747018358619844617,-0.063,,,,0.8594984988
1747018358627546161,-0.066,,,,0.8602686532
1747018358635247705,-0.073,,,,0.8610388076
1747018358642949249,-0.078,,,,0.861808962
1747018358650650793,-0.073,,,,0.8625791164
1747018358658352337,-0.061,,,,0.8633492708
1747018358666053881,-0.068,,,,0.8641194252
1747018358673755425,-0.076,,,,0.8648895796
1747018358681456969,-0.068,,,,0.865659734
1747018358689158513,-0.066,,,,0.8664298884
1747018358696860057,-0.071,,,,0.8672000428
1747018358704561601,-0.073,,,,0.8679701972
1747018358712263145,-0.063,,,,0.8687403516
1747018358719964689,-0.061,,,,0.869510506
1747018358727666233,-0.071,,,,0.8702806604
1747018358735367777,-0.068,,,,0.8710508148
1747018358743069321,-0.063,,,,0.8718209692
1747018358750770865,-0.071,,,,0.8725911236
1747018358758472409,-0.073,,,,0.873361278
1747018358766173953,-0.071,,,,0.8741314324
1747018358773875497,-0.071,,,,0.8749015868
1747018358781577041,-0.068,,,,0.8756717412
1747018358789278585,-0.068,,,,0.8764418956
1747018358796980129,-0.068,,,,0.87721205
1747018358804681673,-0.068,,,,0.8779822044
1747018358812383217,-0.071,,,,0.8787523588
1747018358820084761,-0.073,,,,0.8795225132
1747018358827786305,-0.078,,,,0.8802926676
1747018358835487849,-0.076,,,,0.881062822
1747018358843189393,-0.076,,,,0.8818329764
1747018358850890937,-0.078,,,,0.8826031308
1747018358858592481,-0.068,,,,0.8833732852
1747018358866294025,-0.073,,,,0.8841434396
1747018358873995569,-0.085,,,,0.884913594
1747018358881697113,-0.093,,,,0.8856837484
1747018358889398657,-0.1,,,,0.8864539028
1747018358897100201,-0.1,,,,0.8872240572
1747018358904801745,-0.105,,,,0.8879942116
1747018358912503289,-0.105,,,,0.888764366
1747018358920204833,-0.088,,,,0.8895345204
1747018358927906377,-0.083,,,,0.8903046748
1747018358935607921,-0.088,,,,0.8910748292
1747018358943309465,-0.093,,,,0.8918449836
1747018358951011009,-0.103,,,,0.892615138
1747018358958712553,-0.115,,,,0.8933852924
1747018358966414097,-0.125,,,,0.8941554468
1747018358974115641,-0.122,,,,0.8949256012
1747018358981817185,-0.12,,,,0.8956957556
1747018358989518729,-0.127,,,,0.89646591
1747018358997220273,-0.127,,,,0.8972360644
1747018359004921817,-0.117,,,,0.8980062188
1747018359012623361,-0.125,,,,0.8987763732
1747018359020324961,-0.137,71.0,858.0,,0.8995465332
1747018359028026923,-0.12,,,,0.9003167294
1747018359035728885,-0.014,,,,0.9010869256
1747018359043430847,0.228,,,,0.9018571218
1747018359051132809,0.512,,,,0.902627318
1747018359058834771,0.422,,,,0.9033975142
1747018359066536733,-0.117,,,,0.9041677104
1747018359074238695,-0.39,,,,0.9049379066
1747018359081940657,-0.193,,,,0.9057081028
1747018359089642619,-0.154,,,,0.906478299
1747018359097344581,-0.269,,,,0.9072484952
1747018359105046543,-0.233,,,,0.9080186914
1747018359112748505,-0.188,,,,0.9087888876
1747018359120450467,-0.225,,,,0.9095590838
1747018359128152429,-0.235,,,,0.91032928
1747018359135854391,-0.203,,,,0.9110994762
1747018359143556353,-0.201,,,,0.9118696724
1747018359151258315,-0.213,,,,0.9126398686
1747018359158960277,-0.206,,,,0.9134100648
1747018359166662239,-0.196,,,,0.914180261
1747018359174364201,-0.193,,,,0.9149504572
1747018359182066163,-0.196,,,,0.9157206534
1747018359189768125,-0.193,,,,0.9164908496
1747018359197470087,-0.181,,,,0.9172610458
1747018359205172049,-0.181,,,,0.918031242
1747018359212874011,-0.186,,,,0.9188014382
1747018359220575973,-0.176,,,,0.9195716344
1747018359228277935,-0.166,,,,0.9203418306
1747018359235979897,-0.164,,,,0.9211120268
1747018359243681859,-0.164,,,,0.921882223
1747018359251383821,-0.161,,,,0.9226524192
1747018359259085783,-0.154,,,,0.9234226154
1747018359266787745,-0.147,,,,0.9241928116
1747018359274489707,-0.132,,,,0.9249630078
1747018359282191669,-0.112,,,,0.925733204
1747018359289893631,-0.103,,,,0.9265034002
1747018359297595593,-0.088,,,,0.9272735964
1747018359305297555,-0.071,,,,0.9280437926
1747018359312999517,-0.053,,,,0.9288139888
1747018359320701479,-0.049,,,,0.929584185
1747018359328403441,-0.061,,,,0.9303543812
1747018359336105403,-0.088,,,,0.9311245774
1747018359343807365,-0.144,,,,0.9318947736
1747018359351509327,-0.208,,,,0.9326649698
1747018359359211289,-0.245,,,,0.933435166
1747018359366913251,-0.272,,,,0.9342053622
1747018359374615213,-0.294,,,,0.9349755584
1747018359382317175,-0.301,,,,0.9357457546
1747018359390019137,-0.296,,,,0.9365159508
1747018359397721099,-0.294,,,,0.937286147
1747018359405423061,-0.301,,,,0.9380563432
1747018359413125023,-0.301,,,,0.9388265394
1747018359420826985,-0.294,,,,0.9395967356
1747018359428528947,-0.289,,,,0.9403669318
1747018359436230909,-0.287,,,,0.941137128
1747018359443932871,-0.287,,,,0.9419073242
1747018359451634833,-0.284,,,,0.9426775204
1747018359459336795,-0.279,,,,0.9434477166
1747018359467038757,-0.284,,,,0.9442179128
1747018359474740719,-0.282,,,,0.944988109
1747018359482442681,-0.282,,,,0.9457583052
1747018359490144643,-0.294,,,,0.9465285014
1747018359497846605,-0.287,,,,0.9472986976
1747018359505548567,-0.277,,,,0.9480688938
1747018359513250529,-0.284,,,,0.94883909
1747018359520952491,-0.291,,,,0.9496092862
1747018359528654453,-0.282,,,,0.9503794824
1747018359536356415,-0.274,,,,0.9511496786
1747018359544058377,-0.282,,,,0.9519198748
1747018359551760339,-0.287,,,,0.952690071
1747018359559462301,-0.279,,,,0.9534602672
1747018359567164263,-0.291,,,,0.9542304634
1747018359574866225,-0.301,,,,0.9550006596
1747018359582568251,-0.291,,,,0.9557708622
1747018359590269795,-0.282,,,,0.9565410166
1747018359597971339,-0.284,,,,0.957311171
1747018359605672883,-0.296,,,,0.9580813254
1747018359613374427,-0.301,,,,0.9588514798
1747018359621075971,-0.299,,,,0.9596216342
1747018359628777515,-0.301,,,,0.9603917886
1747018359636479059,-0.299,,,,0.961161943
1747018359644180603,-0.296,,,,0.9619320974
1747018359651882147,-0.304,,,,0.9627022518
1747018359659583691,-0.318,,,,0.9634724062
1747018359667285235,-0.323,,,,0.9642425606
1747018359674986779,-0.316,,,,0.965012715
1747018359682688323,-0.311,,,,0.9657828694
1747018359690389867,-0.316,,,,0.9665530238
1747018359698091411,-0.311,,,,0.9673231782
1747018359705792955,-0.306,,,,0.9680933326
1747018359713494499,-0.314,,,,0.968863487
1747018359721196043,-0.328,,,,0.9696336414
1747018359728897587,-0.333,,,,0.9704037958
1747018359736599131,-0.331,,,,0.9711739502
1747018359744300675,-0.341,,,,0.9719441046
1747018359752002219,-0.336,,,,0.972714259
1747018359759703763,-0.316,,,,0.9734844134
1747018359767405307,-0.318,,,,0.9742545678
1747018359775106851,-0.328,,,,0.9750247222
1747018359782808395,-0.328,,,,0.9757948766
1747018359790509939,-0.343,,,,0.976565031
1747018359798211483,-0.355,,,,0.9773351854
1747018359805913027,-0.353,,,,0.9781053398
1747018359813614571,-0.348,,,,0.9788754942
1747018359821316115,-0.355,,,,0.9796456486
1747018359829017659,-0.36,,,,0.980415803
1747018359836719203,-0.36,,,,0.9811859574
1747018359844420747,-0.368,,,,0.9819561118
1747018359852122291,-0.368,,,,0.9827262662
1747018359859823835,-0.358,,,,0.9834964206
1747018359867525379,-0.345,,,,0.984266575
1747018359875226923,-0.247,,,,0.9850367294
1747018359882928467,0.012,,,,0.9858068838
1747018359890630011,0.284,,,,0.9865770382
1747018359898331555,0.152,,,,0.9873471926
1747018359906033099,-0.397,,,,0.988117347
1747018359913734643,-0.623,,,,0.9888875014
1747018359921436187,-0.407,,,,0.9896576558
1747018359929137731,-0.385,,,,0.9904278102
1747018359936839275,-0.5,,,,0.9911979646
1747018359944540819,-0.449,,,,0.991968119
1747018359952242363,-0.404,,,,0.9927382734
1747018359959943907,-0.439,,,,0.9935084278
1747018359967645451,-0.431,,,,0.9942785822
1747018359975346995,-0.399,,,,0.9950487366
1747018359983048539,-0.399,,,,0.995818891
1747018359990750083,-0.409,,,,0.9965890454
1747018359998451627,-0.395,,,,0.9973591998
1747018360006153171,-0.377,,,,0.9981293542
1747018360013854715,-0.377,,,,0.9988995086
1747018360021556259,-0.382,,,,0.999669663
1747018360029257803,-0.377,,,,1.0004398174
1747018360036959347,-0.363,,,,1.0012099718
1747018360044660891,-0.355,,,,1.0019801262
1747018360052362435,-0.343,,,,1.0027502806
1747018360060063979,-0.333,,,,1.003520435
1747018360067765523,-0.331,,,,1.0042905894
1747018360075467067,-0.321,,,,1.0050607438
1747018360083168611,-0.306,,,,1.0058308982
1747018360090870155,-0.289,,,,1.0066010526
1747018360098571699,-0.269,,,,1.007371207
1747018360106273243,-0.255,,,,1.0081413614
1747018360113974787,-0.238,,,,1.0089115158
1747018360121676331,-0.211,,,,1.0096816702
1747018360129377875,-0.184,,,,1.0104518246
1747018360137079419,-0.159,,,,1.011221979
1747018360144781019,-0.147,71.0,901.0,,1.011992139
1747018360152482563,-0.13,,,,1.0127622934
1747018360160184107,-0.115,,,,1.0135324478
1747018360167885651,-0.134,,,,1.0143026022
1747018360175587195,-0.179,,,,1.0150727566
1747018360183288739,-0.225,,,,1.015842911
1747018360190990283,-0.272,,,,1.0166130654
1747018360198691827,-0.314,,,,1.0173832198
1747018360206393371,-0.336,,,,1.0181533742
1747018360214094915,-0.35,,,,1.0189235286
1747018360221796459,-0.348,,,,1.019693683
1747018360229498003,-0.336,,,,1.0204638374
1747018360237199547,-0.328,,,,1.0212339918
1747018360244901091,-0.326,,,,1.0220041462
1747018360252602635,-0.316,,,,1.0227743006
1747018360260304179,-0.301,,,,1.023544455
1747018360268005723,-0.291,,,,1.0243146094
1747018360275707267,-0.287,,,,1.0250847638
1747018360283408811,-0.282,,,,1.0258549182
1747018360291110355,-0.274,,,,1.0266250726
1747018360298811899,-0.262,,,,1.027395227
1747018360306513443,-0.264,,,,1.0281653814
1747018360314214987,-0.269,,,,1.0289355358
1747018360321916531,-0.26,,,,1.0297056902
1747018360329618075,-0.242,,,,1.0304758446
1747018360337319619,-0.24,,,,1.031245999
1747018360345021163,-0.247,,,,1.0320161534
1747018360352722707,-0.247,,,,1.0327863078
1747018360360424251,-0.24,,,,1.0335564622
1747018360368125795,-0.233,,,,1.0343266166
1747018360375827339,-0.225,,,,1.035096771
1747018360383528883,-0.228,,,,1.0358669254
1747018360391230427,-0.23,,,,1.0366370798
1747018360398931971,-0.228,,,,1.0374072342
1747018360406633515,-0.228,,,,1.0381773886
1747018360414335059,-0.223,,,,1.038947543
1747018360422036603,-0.218,,,,1.0397176974
1747018360429738147,-0.215,,,,1.0404878518
1747018360437439691,-0.208,,,,1.0412580062
1747018360445141235,-0.208,,,,1.0420281606
1747018360452842779,-0.213,,,,1.042798315
1747018360460544323,-0.203,,,,1.0435684694
1747018360468245867,-0.198,,,,1.0443386238
1747018360475947411,-0.203,,,,1.0451087782
1747018360483648955,-0.201,,,,1.0458789326
1747018360491350499,-0.193,,,,1.046649087
1747018360499052043,-0.191,,,,1.0474192414
1747018360506753587,-0.191,,,,1.0481893958
1747018360514455131,-0.184,,,,1.0489595502
1747018360522156675,-0.176,,,,1.0497297046
1747018360529858219,-0.186,,,,1.050499859
1747018360537559763,-0.191,,,,1.0512700134
1747018360545261307,-0.181,,,,1.0520401678
1747018360552962851,-0.174,,,,1.0528103222
1747018360560664395,-0.166,,,,1.0535804766
1747018360568365939,-0.161,,,,1.054350631
1747018360576067483,-0.157,,,,1.0551207854
1747018360583769027,-0.161,,,,1.0558909398
1747018360591470571,-0.166,,,,1.0566610942
1747018360599172115,-0.166,,,,1.0574312486
1747018360606873659,-0.169,,,,1.058201403
1747018360614575203,-0.171,,,,1.0589715574
1747018360622276747,-0.161,,,,1.0597417118
1747018360629978291,-0.154,,,,1.0605118662
1747018360637679835,-0.159,,,,1.0612820206
1747018360645381379,-0.157,,,,1.062052175
1747018360653082923,-0.147,,,,1.0628223294
1747018360660784467,-0.139,,,,1.0635924838
1747018360668486011,-0.117,,,,1.0643626382
1747018360676187555,0.026,,,,1.0651327926
1747018360683889099,0.333,,,,1.065902947
1747018360691590643,0.529,,,,1.0666731014
1747018360699292187,0.213,,,,1.0674432558
1747018360706993787,-0.311,,,,1.0682134158
1747018360714695331,-0.333,,,,1.0689835702
1747018360722396875,-0.13,,,,1.0697537246
1747018360730098419,-0.201,,,,1.070523879
1747018360737799963,-0.262,,,,1.0712940334
1747018360745501507,-0.191,,,,1.0720641878
1747018360753203051,-0.181,,,,1.0728343422
1747018360760904595,-0.201,,,,1.0736044966
1747018360768606139,-0.181,,,,1.074374651
1747018360776307683,-0.169,,,,1.0751448054
1747018360784009227,-0.171,,,,1.0759149598
1747018360791710771,-0.164,,,,1.0766851142
1747018360799412315,-0.152,,,,1.0774552686
1747018360807113859,-0.147,,,,1.078225423
1747018360814815403,-0.144,,,,1.0789955774
1747018360822516947,-0.144,,,,1.0797657318
1747018360830218491,-0.142,,,,1.0805358862
1747018360837920035,-0.134,,,,1.0813060406
1747018360845621579,-0.125,,,,1.082076195
1747018360853323123,-0.117,,,,1.0828463494
1747018360861024667,-0.112,,,,1.0836165038
1747018360868726211,-0.107,,,,1.0843866582
1747018360876427755,-0.098,,,,1.0851568126
1747018360884129299,-0.088,,,,1.085926967
1747018360891830843,-0.088,,,,1.0866971214
1747018360899532387,-0.073,,,,1.0874672758
1747018360907233931,-0.051,,,,1.0882374302
1747018360914935475,-0.036,,,,1.0890075846
1747018360922637019,-0.017,,,,1.089777739
1747018360930338563,0.004,,,,1.0905478934
1747018360938040107,0.022,,,,1.0913180478
1747018360945741651,0.029,,,,1.0920882022
1747018360953443195,0.039,,,,1.0928583566
1747018360961144739,0.046,,,,1.093628511
1747018360968846283,0.019,,,,1.0943986654
1747018360976547827,-0.034,,,,1.0951688198
1747018360984249371,-0.088,,,,1.0959389742
1747018360991950915,-0.13,,,,1.0967091286
1747018360999652459,-0.159,,,,1.097479283
1747018361007354003,-0.184,,,,1.0982494374
1747018361015055547,-0.191,,,,1.0990195918
1747018361022757091,-0.191,,,,1.0997897462
1747018361030458635,-0.191,,,,1.1005599006
1747018361038160179,-0.184,,,,1.101330055
1747018361045861723,-0.171,,,,1.1021002094
1747018361053563267,-0.164,,,,1.1028703638
1747018361061264811,-0.159,,,,1.1036405182
1747018361068966355,-0.154,,,,1.1044106726
1747018361076667899,-0.147,,,,1.105180827
1747018361084369443,-0.152,,,,1.1059509814
1747018361092070987,-0.159,,,,1.1067211358
1747018361099772531,-0.147,,,,1.1074912902
1747018361107474075,-0.137,,,,1.1082614446
1747018361115175619,-0.137,,,,1.109031599
1747018361122877163,-0.139,,,,1.1098017534
1747018361130578707,-0.139,,,,1.1105719078
1747018361138280251,-0.139,,,,1.1113420622
1747018361145981795,-0.137,,,,1.1121122166
1747018361153683339,-0.137,,,,1.112882371
1747018361161384883,-0.134,,,,1.1136525254
1747018361169086427,-0.134,,,,1.1144226798
1747018361176787971,-0.137,,,,1.1151928342
1747018361184489515,-0.134,,,,1.1159629886
1747018361192191059,-0.132,,,,1.116733143
1747018361199892603,-0.134,,,,1.1175032974
1747018361207594147,-0.132,,,,1.1182734518
1747018361215295691,-0.125,,,,1.1190436062
1747018361222997235,-0.13,,,,1.1198137606
1747018361230698779,-0.134,,,,1.120583915
1747018361238400323,-0.122,,,,1.1213540694
1747018361246101867,-0.115,,,,1.1221242238
1747018361253803411,-0.12,,,,1.1228943782
1747018361261504955,-0.122,,,,1.1236645326
1747018361269206555,-0.122,70.0,903.0,,1.1244346926
1747018361276908099,-0.125,,,,1.125204847
1747018361284609643,-0.12,,,,1.1259750014
1747018361292311187,-0.115,,,,1.1267451558
1747018361300012731,-0.115,,,,1.1275153102
1747018361307714275,-0.12,,,,1.1282854646
1747018361315415819,-0.115,,,,1.129055619
1747018361323117363,-0.107,,,,1.1298257734
1747018361330818907,-0.105,,,,1.1305959278
1747018361338520451,-0.107,,,,1.1313660822
1747018361346221995,-0.112,,,,1.1321362366
1747018361353923539,-0.11,,,,1.132906391
1747018361361625083,-0.105,,,,1.1336765454
1747018361369326627,-0.112,,,,1.1344466998
1747018361377028171,-0.117,,,,1.1352168542
1747018361384729715,-0.107,,,,1.1359870086
1747018361392431259,-0.095,,,,1.136757163
1747018361400132803,-0.093,,,,1.1375273174
1747018361407834347,-0.095,,,,1.1382974718
1747018361415535891,-0.098,,,,1.1390676262
1747018361423237435,-0.105,,,,1.1398377806
1747018361430938979,-0.11,,,,1.140607935
1747018361438640523,-0.107,,,,1.1413780894
1747018361446342067,-0.105,,,,1.1421482438
1747018361454043611,-0.103,,,,1.1429183982
1747018361461745155,-0.098,,,,1.1436885526
1747018361469446699,-0.098,,,,1.144458707
1747018361477148243,-0.1,,,,1.1452288614
1747018361484849787,-0.095,,,,1.1459990158
1747018361492551331,-0.08,,,,1.1467691702
1747018361500252875,-0.034,,,,1.1475393246
1747018361507954419,0.125,,,,1.148309479
1747018361515655963,0.429,,,,1.1490796334
1747018361523357507,0.586,,,,1.1498497878
1747018361531059051,0.218,,,,1.1506199422
1747018361538760595,-0.277,,,,1.1513900966
1747018361546462139,-0.247,,,,1.152160251
1747018361554163683,-0.066,,,,1.1529304054
1747018361561865227,-0.159,,,,1.1537005598
1747018361569566771,-0.203,,,,1.1544707142
1747018361577268315,-0.122,,,,1.1552408686
1747018361584969859,-0.127,,,,1.156011023
1747018361592671403,-0.154,,,,1.1567811774
1747018361600372947,-0.127,,,,1.1575513318
1747018361608074491,-0.112,,,,1.1583214862
1747018361615776035,-0.117,,,,1.1590916406
1747018361623477579,-0.105,,,,1.159861795
1747018361631179123,-0.093,,,,1.1606319494
1747018361638880667,-0.093,,,,1.1614021038
1747018361646582211,-0.098,,,,1.1621722582
1747018361654283755,-0.095,,,,1.1629424126
1747018361661985299,-0.083,,,,1.163712567
1747018361669686843,-0.076,,,,1.1644827214
1747018361677388387,-0.078,,,,1.1652528758
1747018361685089931,-0.076,,,,1.1660230302
1747018361692791475,-0.061,,,,1.1667931846
1747018361700493019,-0.053,,,,1.167563339
1747018361708194563,-0.053,,,,1.1683334934
1747018361715896107,-0.046,,,,1.1691036478
1747018361723597651,-0.036,,,,1.1698738022
1747018361731299195,-0.019,,,,1.1706439566
1747018361739000739,0.002,,,,1.171414111
1747018361746702283,0.017,,,,1.1721842654
1747018361754403827,0.029,,,,1.1729544198
1747018361762105371,0.044,,,,1.1737245742
1747018361769806915,0.058,,,,1.1744947286
1747018361777508459,0.078,,,,1.175264883
1747018361785210003,0.085,,,,1.1760350374
1747018361792911547,0.083,,,,1.1768051918
1747018361800613091,0.063,,,,1.1775753462
1747018361808314635,0.017,,,,1.1783455006
1747018361816016179,-0.031,,,,1.179115655
1747018361823717723,-0.073,,,,1.1798858094
1747018361831419323,-0.107,,,,1.1806559694
1747018361839120867,-0.122,,,,1.1814261238
1747018361846822411,-0.127,,,,1.1821962782
1747018361854523955,-0.13,,,,1.1829664326
1747018361862225499,-0.127,,,,1.183736587
1747018361869927043,-0.117,,,,1.1845067414
1747018361877628587,-0.105,,,,1.1852768958
1747018361885330131,-0.105,,,,1.1860470502
1747018361893031675,-0.105,,,,1.1868172046
1747018361900733219,-0.095,,,,1.187587359
1747018361908434763,-0.085,,,,1.1883575134
1747018361916136307,-0.083,,,,1.1891276678
1747018361923837851,-0.085,,,,1.1898978222
1747018361931539395,-0.088,,,,1.1906679766
1747018361939240939,-0.085,,,,1.191438131
1747018361946942483,-0.076,,,,1.1922082854
1747018361954644027,-0.076,,,,1.1929784398
1747018361962345571,-0.083,,,,1.1937485942
1747018361970047115,-0.08,,,,1.1945187486
1747018361977748659,-0.068,,,,1.195288903
1747018361985450203,-0.073,,,,1.1960590574
1747018361993151747,-0.083,,,,1.1968292118
1747018362000853291,-0.076,,,,1.1975993662
1747018362008554835,-0.066,,,,1.1983695206
1747018362016256379,-0.068,,,,1.199139675
1747018362023957923,-0.068,,,,1.1999098294
1747018362031659467,-0.066,,,,1.2006799838
1747018362039361011,-0.063,,,,1.2014501382
1747018362047062555,-0.063,,,,1.2022202926
1747018362054764099,-0.061,,,,1.202990447
1747018362062465643,-0.056,,,,1.2037606014
1747018362070167187,-0.061,,,,1.2045307558
1747018362077868731,-0.061,,,,1.2053009102
1747018362085570275,-0.056,,,,1.2060710646
1747018362093271819,-0.056,,,,1.206841219
1747018362100973363,-0.051,,,,1.2076113734
1747018362108674907,-0.051,,,,1.2083815278
1747018362116376451,-0.053,,,,1.2091516822
1747018362124077995,-0.051,,,,1.2099218366
1747018362131779539,-0.053,,,,1.210691991
1747018362139481083,-0.061,,,,1.2114621454
1747018362147182627,-0.061,,,,1.2122322998
1747018362154884171,-0.051,,,,1.2130024542
1747018362162585715,-0.049,,,,1.2137726086
1747018362170287259,-0.051,,,,1.214542763
1747018362177988803,-0.051,,,,1.2153129174
1747018362185690347,-0.051,,,,1.2160830718
1747018362193391891,-0.051,,,,1.2168532262
1747018362201093435,-0.049,,,,1.2176233806
1747018362208794979,-0.051,,,,1.218393535
1747018362216496523,-0.051,,,,1.2191636894
1747018362224198067,-0.058,,,,1.2199338438
1747018362231899611,-0.061,,,,1.2207039982
1747018362239601155,-0.046,,,,1.2214741526
1747018362247302699,-0.034,,,,1.222244307
1747018362255004243,-0.036,,,,1.2230144614
1747018362262705787,-0.034,,,,1.2237846158
1747018362270407331,-0.031,,,,1.2245547702
1747018362278108875,-0.041,,,,1.2253249246
1747018362285810419,-0.053,,,,1.226095079
1747018362293511963,-0.053,,,,1.2268652334
1747018362301213507,-0.051,,,,1.2276353878
1747018362308915051,-0.053,,,,1.2284055422
1747018362316616595,-0.046,,,,1.2291756966
1747018362324318139,-0.041,,,,1.229945851
1747018362332019683,-0.046,,,,1.2307160054
1747018362339721227,-0.049,,,,1.2314861598
1747018362347422771,-0.051,,,,1.2322563142
1747018362355124315,-0.044,,,,1.2330264686
1747018362362825859,0.012,,,,1.233796623
1747018362370527403,0.186,,,,1.2345667774
1747018362378228947,0.488,,,,1.2353369318
1747018362385930491,0.635,,,,1.2361070862
1747018362393632091,0.267,70.0,839.0,,1.2368772462
1747018362401333635,-0.225,,,,1.2376474006
1747018362409035179,-0.206,,,,1.238417555
1747018362416736723,-0.024,,,,1.2391877094
1747018362424438267,-0.112,,,,1.2399578638
1747018362432139811,-0.161,,,,1.2407280182
1747018362439841355,-0.083,,,,1.2414981726
1747018362447542899,-0.085,,,,1.242268327
1747018362455244443,-0.107,,,,1.2430384814
1747018362462945987,-0.08,,,,1.2438086358
1747018362470647531,-0.073,,,,1.2445787902
1747018362478349075,-0.076,,,,1.2453489446
1747018362486050619,-0.068,,,,1.246119099
1747018362493752163,-0.058,,,,1.2468892534
1747018362501453707,-0.056,,,,1.2476594078
1747018362509155251,-0.058,,,,1.2484295622
1747018362516856795,-0.053,,,,1.2491997166
1747018362524558339,-0.044,,,,1.249969871
1747018362532259883,-0.044,,,,1.2507400254
1747018362539961427,-0.041,,,,1.2515101798
1747018362547662971,-0.036,,,,1.2522803342
1747018362555364515,-0.029,,,,1.2530504886
1747018362563066059,-0.022,,,,1.253820643
1747018362570767603,-0.019,,,,1.2545907974
1747018362578469147,-0.014,,,,1.2553609518
1747018362586170691,-0.004,,,,1.2561311062
1747018362593872235,0.009,,,,1.2569012606
1747018362601573779,0.026,,,,1.257671415
1747018362609275323,0.039,,,,1.2584415694
1747018362616976867,0.053,,,,1.2592117238
1747018362624678411,0.068,,,,1.2599818782
1747018362632379955,0.085,,,,1.2607520326
1747018362640081499,0.105,,,,1.261522187
1747018362647783043,0.112,,,,1.2622923414
1747018362655484587,0.107,,,,1.2630624958
1747018362663186131,0.09,,,,1.2638326502
1747018362670887675,0.056,,,,1.2646028046
1747018362678589219,0.007,,,,1.265372959
1747018362686290763,-0.041,,,,1.2661431134
1747018362693992307,-0.076,,,,1.2669132678
1747018362701693851,-0.088,,,,1.2676834222
1747018362709395395,-0.09,,,,1.2684535766
1747018362717096939,-0.095,,,,1.269223731
1747018362724798483,-0.098,,,,1.2699938854
1747018362732500027,-0.095,,,,1.2707640398
1747018362740201571,-0.085,,,,1.2715341942
1747018362747903115,-0.078,,,,1.2723043486
1747018362755604659,-0.073,,,,1.273074503
1747018362763306203,-0.071,,,,1.2738446574
1747018362771007747,-0.068,,,,1.2746148118
1747018362778709291,-0.061,,,,1.2753849662
1747018362786410835,-0.058,,,,1.2761551206
1747018362794112379,-0.061,,,,1.276925275
1747018362801813923,-0.056,,,,1.2776954294
1747018362809515467,-0.053,,,,1.2784655838
1747018362817217011,-0.053,,,,1.2792357382
1747018362824918555,-0.056,,,,1.2800058926
1747018362832620099,-0.051,,,,1.280776047
1747018362840321643,-0.046,,,,1.2815462014
1747018362848023187,-0.053,,,,1.2823163558
1747018362855724731,-0.053,,,,1.2830865102
1747018362863426275,-0.051,,,,1.2838566646
1747018362871127819,-0.056,,,,1.284626819
1747018362878829363,-0.051,,,,1.2853969734
1747018362886530907,-0.051,,,,1.2861671278
1747018362894232451,-0.056,,,,1.2869372822
1747018362901933995,-0.051,,,,1.2877074366
1747018362909635539,-0.044,,,,1.288477591
1747018362917337083,-0.046,,,,1.2892477454
1747018362925038627,-0.051,,,,1.2900178998
1747018362932740171,-0.049,,,,1.2907880542
1747018362940441715,-0.044,,,,1.2915582086
1747018362948143259,-0.051,,,,1.292328363
1747018362955844859,-0.051,70.0,799.0,,1.293098523
1747018362963546543,-0.044,,831.0,,1.2938686914
1747018362971248227,-0.044,,,,1.2946388598
1747018362978949911,-0.046,,,,1.2954090282
1747018362986651595,-0.049,,,,1.2961791966
1747018362994353279,-0.044,,,,1.296949365
1747018363002054963,-0.041,,,,1.2977195334
1747018363009756647,-0.046,,,,1.2984897018
1747018363017458331,-0.041,,,,1.2992598702
1747018363025160015,-0.039,,,,1.3000300386
1747018363032861699,-0.041,,,,1.300800207
1747018363040563383,-0.041,,,,1.3015703754
1747018363048265067,-0.039,,,,1.3023405438
1747018363055966751,-0.039,,,,1.3031107122
1747018363063668435,-0.044,,,,1.3038808806
1747018363071370119,-0.044,,,,1.304651049
1747018363079071803,-0.039,,,,1.3054212174
1747018363086773487,-0.049,,,,1.3061913858
1747018363094475171,-0.056,,,,1.3069615542
1747018363102176855,-0.049,,,,1.3077317226
1747018363109878539,-0.036,,,,1.308501891
1747018363117580223,-0.026,,,,1.3092720594
1747018363125281907,-0.029,,,,1.3100422278
1747018363132983591,-0.034,,,,1.3108123962
1747018363140685275,-0.036,,,,1.3115825646
1747018363148386959,-0.056,,,,1.312352733
1747018363156088643,-0.058,,,,1.3131229014
1747018363163790327,-0.046,,,,1.3138930698
1747018363171492011,-0.051,,,,1.3146632382
1747018363179193695,-0.051,,,,1.3154334066
1747018363186895379,-0.046,,,,1.316203575
1747018363194597063,-0.049,,,,1.3169737434
1747018363202298747,-0.046,,,,1.3177439118
1747018363210000431,-0.053,,,,1.3185140802
1747018363217702115,-0.051,,,,1.3192842486
1747018363225403799,-0.026,,,,1.320054417
1747018363233105483,0.063,,,,1.3208245854
1747018363240807167,0.299,,,,1.3215947538
1747018363248508851,0.586,,,,1.3223649222
1747018363256210535,0.52,,,,1.3231350906
1747018363263912219,-0.002,,,,1.323905259
1747018363271613903,-0.287,,,,1.3246754274
1747018363279315587,-0.098,,,,1.3254455958
1747018363287017271,-0.053,,,,1.3262157642
1747018363294718955,-0.171,,,,1.3269859326
1747018363302420639,-0.132,,,,1.327756101
1747018363310122323,-0.088,,,,1.3285262694
1747018363317824007,-0.12,,,,1.3292964378
1747018363325525691,-0.112,,,,1.3300666062
1747018363333227375,-0.085,,,,1.3308367746
1747018363340929059,-0.09,,,,1.331606943
1747018363348630743,-0.093,,,,1.3323771114
1747018363356332427,-0.078,,,,1.3331472798
1747018363364034111,-0.071,,,,1.3339174482
1747018363371735795,-0.073,,,,1.3346876166
1747018363379437479,-0.071,,,,1.335457785
1747018363387139163,-0.063,,,,1.3362279534
1747018363394840847,-0.058,,,,1.3369981218
1747018363402542531,-0.058,,,,1.3377682902
1747018363410244215,-0.063,,,,1.3385384586
1747018363417945899,-0.058,,,,1.339308627
1747018363425647583,-0.051,,,,1.3400787954
1747018363433349267,-0.044,,,,1.3408489638
1747018363441050951,-0.034,,,,1.3416191322
1747018363448752635,-0.026,,,,1.3423893006
1747018363456454319,-0.012,,,,1.343159469
1747018363464156003,-0.004,,,,1.3439296374
1747018363471857687,0.004,,,,1.3446998058
1747018363479559371,0.026,,,,1.3454699742
1747018363487261055,0.039,,,,1.3462401426
1747018363494962739,0.046,,,,1.347010311
1747018363502664423,0.063,,,,1.3477804794
1747018363510366107,0.078,,,,1.3485506478
1747018363518067804,0.093,,,,1.3493208175
1747018363525769348,0.09,,,,1.3500909719
1747018363533470892,0.058,,,,1.3508611263
1747018363541172436,0.014,,,,1.3516312807
1747018363548873980,-0.036,,,,1.3524014351
1747018363556575524,-0.073,,,,1.3531715895
1747018363564277068,-0.098,,,,1.3539417439
1747018363571978612,-0.117,,,,1.3547118983
1747018363579680156,-0.117,,,,1.3554820527
1747018363587381700,-0.112,,,,1.3562522071
1747018363595083244,-0.105,,,,1.3570223615
1747018363602784788,-0.107,,,,1.3577925159
1747018363610486332,-0.107,,,,1.3585626703
1747018363618187876,-0.093,,,,1.3593328247
1747018363625889420,-0.09,,,,1.3601029791
1747018363633590964,-0.093,,,,1.3608731335
1747018363641292508,-0.083,,,,1.3616432879
1747018363648994052,-0.08,,,,1.3624134423
1747018363656695596,-0.08,,,,1.3631835967
1747018363664397140,-0.076,,,,1.3639537511
1747018363672098684,-0.08,,,,1.3647239055
1747018363679800228,-0.078,,,,1.3654940599
1747018363687501772,-0.073,,,,1.3662642143
1747018363695203316,-0.076,,,,1.3670343687
1747018363702904860,-0.076,,,,1.3678045231
1747018363710606404,-0.073,,,,1.3685746775
1747018363718307948,-0.073,,,,1.3693448319
1747018363726009492,-0.078,,,,1.3701149863
1747018363733711036,-0.078,,,,1.3708851407
1747018363741412580,-0.073,,,,1.3716552951
1747018363749114124,-0.076,,,,1.3724254495
1747018363756815668,-0.071,,,,1.3731956039
1747018363764517212,-0.068,,,,1.3739657583
1747018363772218756,-0.078,,,,1.3747359127
1747018363779920300,-0.076,,,,1.3755060671
1747018363787621844,-0.068,,,,1.3762762215
1747018363795323388,-0.068,,,,1.3770463759
1747018363803024932,-0.068,,,,1.3778165303
1747018363810726476,-0.073,,,,1.3785866847
1747018363818428020,-0.071,,,,1.3793568391
1747018363826129564,-0.068,,,,1.3801269935
1747018363833831108,-0.071,,,,1.3808971479
1747018363841532652,-0.071,,,,1.3816673023
1747018363849234196,-0.071,,,,1.3824374567
1747018363856935740,-0.066,,,,1.3832076111
1747018363864637284,-0.066,,,,1.3839777655
1747018363872338828,-0.078,,,,1.3847479199
1747018363880040372,-0.078,,,,1.3855180743
1747018363887741916,-0.068,,,,1.3862882287
1747018363895443460,-0.066,,,,1.3870583831
1747018363903145004,-0.071,,,,1.3878285375
1747018363910846548,-0.073,,,,1.3885986919
1747018363918548092,-0.071,,,,1.3893688463
1747018363926249636,-0.071,,,,1.3901390007
1747018363933951180,-0.068,,,,1.3909091551
1747018363941652724,-0.066,,,,1.3916793095
1747018363949354268,-0.071,,,,1.3924494639
1747018363957055812,-0.071,,,,1.3932196183
1747018363964757356,-0.076,,,,1.3939897727
1747018363972458900,-0.078,,,,1.3947599271
1747018363980160444,-0.071,,,,1.3955300815
1747018363987861988,-0.066,,,,1.3963002359
1747018363995563532,-0.058,,,,1.3970703903
1747018364003265076,-0.053,,,,1.3978405447
1747018364010966620,-0.058,,,,1.3986106991
1747018364018668164,-0.061,,,,1.3993808535
1747018364026369708,-0.066,,,,1.4001510079
1747018364034071252,-0.076,,,,1.4009211623
1747018364041772796,-0.073,,,,1.4016913167
1747018364049474340,-0.073,,,,1.4024614711
1747018364057175884,-0.076,,,,1.4032316255
1747018364064877428,-0.076,,,,1.4040017799
1747018364072578972,-0.076,,,,1.4047719343
1747018364080280573,-0.071,71.0,862.0,,1.4055420944
1747018364087982396,-0.071,,,,1.4063122767
1747018364095684219,-0.076,,,,1.407082459
1747018364103386042,-0.068,,,,1.4078526413
1747018364111087865,-0.026,,,,1.4086228236
1747018364118789688,0.122,,,,1.4093930059
1747018364126491511,0.409,,,,1.4101631882
1747018364134193334,0.601,,,,1.4109333705
1747018364141895157,0.306,,,,1.4117035528
1747018364149596980,-0.211,,,,1.4124737351
1747018364157298803,-0.25,,,,1.4132439174
1747018364165000626,-0.056,,,,1.4140140997
1747018364172702449,-0.125,,,,1.414784282
1747018364180404272,-0.188,,,,1.4155544643
1747018364188106095,-0.122,,,,1.4163246466
1747018364195807918,-0.115,,,,1.4170948289
1747018364203509741,-0.137,,,,1.4178650112
1747018364211211564,-0.117,,,,1.4186351935
1747018364218913387,-0.103,,,,1.4194053758
1747018364226615210,-0.105,,,,1.4201755581
1747018364234317033,-0.098,,,,1.4209457404
1747018364242018856,-0.088,,,,1.4217159227
1747018364249720679,-0.09,,,,1.422486105
1747018364257422502,-0.083,,,,1.4232562873
1747018364265124325,-0.083,,,,1.4240264696
1747018364272826148,-0.085,,,,1.4247966519
1747018364280527971,-0.073,,,,1.4255668342
1747018364288229794,-0.071,,,,1.4263370165
1747018364295931617,-0.071,,,,1.4271071988
1747018364303633440,-0.061,,,,1.4278773811
1747018364311335263,-0.051,,,,1.4286475634
1747018364319037086,-0.049,,,,1.4294177457
1747018364326738909,-0.046,,,,1.430187928
1747018364334440732,-0.036,,,,1.4309581103
1747018364342142555,-0.024,,,,1.4317282926
1747018364349844378,-0.019,,,,1.4324984749
1747018364357546201,-0.007,,,,1.4332686572
1747018364365248024,0.014,,,,1.4340388395
1747018364372949847,0.034,,,,1.4348090218
1747018364380651670,0.051,,,,1.4355792041
1747018364388353493,0.061,,,,1.4363493864
1747018364396055316,0.071,,,,1.4371195687
1747018364403757139,0.071,,,,1.437889751
1747018364411458962,0.053,,,,1.4386599333
1747018364419160785,0.022,,,,1.4394301156
1747018364426862608,-0.022,,,,1.4402002979
1747018364434564431,-0.066,,,,1.4409704802
1747018364442266254,-0.098,,,,1.4417406625
1747018364449968077,-0.12,,,,1.4425108448
1747018364457669900,-0.13,,,,1.4432810271
1747018364465371723,-0.137,,,,1.4440512094
1747018364473073546,-0.137,,,,1.4448213917
1747018364480775369,-0.13,,,,1.445591574
1747018364488477192,-0.127,,,,1.4463617563
1747018364496179015,-0.12,,,,1.4471319386
1747018364503880838,-0.115,,,,1.4479021209
1747018364511582661,-0.115,,,,1.4486723032
1747018364519284484,-0.11,,,,1.4494424855
1747018364526986307,-0.1,,,,1.4502126678
1747018364534688130,-0.1,,,,1.4509828501
1747018364542389953,-0.103,,,,1.4517530324
1747018364550091776,-0.1,,,,1.4525232147
1747018364557793599,-0.088,,,,1.453293397
1747018364565495422,-0.093,,,,1.4540635793
1747018364573197245,-0.103,,,,1.4548337616
1747018364580899068,-0.088,,,,1.4556039439
1747018364588600891,-0.088,,,,1.4563741262
1747018364596302714,-0.098,,,,1.4571443085
1747018364604004537,-0.095,,,,1.4579144908
1747018364611706360,-0.093,,,,1.4586846731
1747018364619408183,-0.088,,,,1.4594548554
1747018364627110006,-0.085,,,,1.4602250377
1747018364634811829,-0.09,,,,1.46099522
1747018364642513685,-0.09,,,,1.4617654056
1747018364650215229,-0.09,,,,1.46253556
1747018364657916773,-0.09,,,,1.4633057144
1747018364665618317,-0.088,,,,1.4640758688
1747018364673319861,-0.09,,,,1.4648460232
1747018364681021405,-0.088,,,,1.4656161776
1747018364688722949,-0.088,,,,1.466386332
1747018364696424493,-0.085,,,,1.4671564864
1747018364704126037,-0.085,,,,1.4679266408
1747018364711827581,-0.085,,,,1.4686967952
1747018364719529125,-0.08,,,,1.4694669496
1747018364727230669,-0.085,,,,1.470237104
1747018364734932213,-0.088,,,,1.4710072584
1747018364742633757,-0.08,,,,1.4717774128
1747018364750335301,-0.08,,,,1.4725475672
1747018364758036845,-0.08,,,,1.4733177216
1747018364765738389,-0.08,,,,1.474087876
1747018364773439933,-0.085,,,,1.4748580304
1747018364781141477,-0.085,,,,1.4756281848
1747018364788843021,-0.08,,,,1.4763983392
1747018364796544565,-0.08,,,,1.4771684936
1747018364804246109,-0.078,,,,1.477938648
1747018364811947653,-0.083,,,,1.4787088024
1747018364819649197,-0.083,,,,1.4794789568
1747018364827350741,-0.085,,,,1.4802491112
1747018364835052285,-0.085,,,,1.4810192656
1747018364842753829,-0.083,,,,1.48178942
1747018364850455373,-0.083,,,,1.4825595744
1747018364858156917,-0.083,,,,1.4833297288
1747018364865858461,-0.083,,,,1.4840998832
1747018364873560005,-0.08,,,,1.4848700376
1747018364881261549,-0.061,,,,1.485640192
1747018364888963093,-0.053,,,,1.4864103464
1747018364896664637,-0.068,,,,1.4871805008
1747018364904366181,-0.076,,,,1.4879506552
1747018364912067725,-0.08,,,,1.4887208096
1747018364919769269,-0.085,,,,1.489490964
1747018364927470813,-0.088,,,,1.4902611184
1747018364935172357,-0.088,,,,1.4910312728
1747018364942873901,-0.085,,,,1.4918014272
1747018364950575445,-0.083,,,,1.4925715816
1747018364958276989,-0.08,,,,1.493341736
1747018364965978533,-0.085,,,,1.4941118904
1747018364973680077,-0.088,,,,1.4948820448
1747018364981381621,-0.083,,,,1.4956521992
1747018364989083165,-0.078,,,,1.4964223536
1747018364996784709,-0.053,,,,1.497192508
1747018365004486253,0.063,,,,1.4979626624
1747018365012187797,0.323,,,,1.4987328168
1747018365019889341,0.5760000000000001,,,,1.4995029712
1747018365027590885,0.399,,,,1.5002731256
1747018365035292429,-0.132,,,,1.50104328
1747018365042993973,-0.299,,,,1.5018134344
1747018365050695517,-0.095,,,,1.5025835888
1747018365058397061,-0.1,,,,1.5033537432
1747018365066098605,-0.203,,,,1.5041238976
1747018365073800149,-0.147,,,,1.504894052
1747018365081501693,-0.11,,,,1.5056642064
1747018365089203237,-0.139,,,,1.5064343608
1747018365096904781,-0.125,,,,1.5072045152
1747018365104606325,-0.105,,,,1.5079746696
1747018365112307869,-0.117,,,,1.508744824
1747018365120009413,-0.112,,,,1.5095149784
1747018365127710957,-0.098,,,,1.5102851328
1747018365135412501,-0.093,,,,1.5110552872
1747018365143114045,-0.098,,,,1.5118254416
1747018365150815589,-0.1,,,,1.512595596
1747018365158517133,-0.088,,,,1.5133657504
1747018365166218677,-0.08,,,,1.5141359048
1747018365173920221,-0.083,,,,1.5149060592
1747018365181621765,-0.073,,,,1.5156762136
1747018365189323309,-0.063,,,,1.516446368
1747018365197024853,-0.058,,,,1.5172165224
1747018365204726453,-0.058,71.0,867.0,,1.5179866824
1747018365212427997,-0.058,,,,1.5187568368
1747018365220129541,-0.044,,,,1.5195269912
1747018365227831085,-0.034,,,,1.5202971456
1747018365235532629,-0.029,,,,1.5210673
1747018365243234173,-0.009,,,,1.5218374544
1747018365250935717,0.009,,,,1.5226076088
1747018365258637261,0.024,,,,1.5233777632
1747018365266338805,0.039,,,,1.5241479176
1747018365274040349,0.051,,,,1.524918072
1747018365281741893,0.061,,,,1.5256882264
1747018365289443437,0.058,,,,1.5264583808
1747018365297144981,0.056,,,,1.5272285352
1747018365304846525,0.034,,,,1.5279986896
1747018365312548069,-0.014,,,,1.528768844
1747018365320249613,-0.058,,,,1.5295389984
1747018365327951157,-0.093,,,,1.5303091528
1747018365335652701,-0.122,,,,1.5310793072
1747018365343354245,-0.134,,,,1.5318494616
1747018365351055789,-0.137,,,,1.532619616
1747018365358757333,-0.137,,,,1.5333897704
1747018365366458877,-0.137,,,,1.5341599248
1747018365374160421,-0.132,,,,1.5349300792
1747018365381861965,-0.12,,,,1.5357002336
1747018365389563509,-0.115,,,,1.536470388
1747018365397265053,-0.115,,,,1.5372405424
1747018365404966597,-0.107,,,,1.5380106968
1747018365412668141,-0.105,,,,1.5387808512
1747018365420369685,-0.107,,,,1.5395510056
1747018365428071229,-0.107,,,,1.54032116
1747018365435772773,-0.103,,,,1.5410913144
1747018365443474317,-0.095,,,,1.5418614688
1747018365451175861,-0.093,,,,1.5426316232
1747018365458877405,-0.095,,,,1.5434017776
1747018365466578949,-0.103,,,,1.544171932
1747018365474280493,-0.1,,,,1.5449420864
1747018365481982037,-0.093,,,,1.5457122408
1747018365489683581,-0.093,,,,1.5464823952
1747018365497385125,-0.09,,,,1.5472525496
1747018365505086669,-0.093,,,,1.548022704
1747018365512788213,-0.093,,,,1.5487928584
1747018365520489757,-0.088,,,,1.5495630128
1747018365528191301,-0.088,,,,1.5503331672
1747018365535892845,-0.09,,,,1.5511033216
1747018365543594389,-0.09,,,,1.551873476
1747018365551295933,-0.093,,,,1.5526436304
1747018365558997477,-0.088,,,,1.5534137848
1747018365566699021,-0.088,,,,1.5541839392
1747018365574400565,-0.088,,,,1.5549540936
1747018365582102109,-0.083,,,,1.555724248
1747018365589803653,-0.085,,,,1.5564944024
1747018365597505197,-0.085,,,,1.5572645568
1747018365605206741,-0.083,,,,1.5580347112
1747018365612908285,-0.085,,,,1.5588048656
1747018365620609829,-0.083,,,,1.55957502
1747018365628311373,-0.085,,,,1.5603451744
1747018365636012917,-0.085,,,,1.5611153288
1747018365643714461,-0.083,,,,1.5618854832
1747018365651416005,-0.088,,,,1.5626556376
1747018365659117549,-0.085,,,,1.563425792
1747018365666819093,-0.083,,,,1.5641959464
1747018365674520637,-0.083,,,,1.5649661008
1747018365682222181,-0.08,,,,1.5657362552
1747018365689923725,-0.083,,,,1.5665064096
1747018365697625269,-0.083,,,,1.567276564
1747018365705326813,-0.08,,,,1.5680467184
1747018365713028357,-0.08,,,,1.5688168728
1747018365720729901,-0.076,,,,1.5695870272
1747018365728431445,-0.078,,,,1.5703571816
1747018365736132989,-0.085,,,,1.571127336
1747018365743834533,-0.088,,,,1.5718974904
1747018365751536077,-0.083,,,,1.5726676448
1747018365759237621,-0.063,,,,1.5734377992
1747018365766939221,-0.053,,,,1.5742079592
1747018365774640765,-0.068,,,,1.5749781136
1747018365782342309,-0.076,,,,1.575748268
1747018365790043853,-0.076,,,,1.5765184224
1747018365797745397,-0.085,,,,1.5772885768
1747018365805446941,-0.095,,,,1.5780587312
1747018365813148485,-0.09,,,,1.5788288856
1747018365820850029,-0.085,,,,1.57959904
1747018365828551573,-0.088,,,,1.5803691944
1747018365836253117,-0.085,,,,1.5811393488
1747018365843954661,-0.083,,,,1.5819095032
1747018365851656205,-0.09,,,,1.5826796576
1747018365859357749,-0.083,,,,1.583449812
1747018365867059293,-0.08,,,,1.5842199664
1747018365874760837,-0.068,,,,1.5849901208
1747018365882462381,0.031,,,,1.5857602752
1747018365890163925,0.272,,,,1.5865304296
1747018365897865469,0.552,,,,1.587300584
1747018365905567013,0.473,,,,1.5880707384
1747018365913268557,-0.046,,,,1.5888408928
1747018365920970101,-0.321,,,,1.5896110472
1747018365928671645,-0.137,,,,1.5903812016
1747018365936373189,-0.085,,,,1.591151356
1747018365944074733,-0.201,,,,1.5919215104
1747018365951776277,-0.171,,,,1.5926916648
1747018365959477821,-0.115,,,,1.5934618192
1747018365967179365,-0.139,,,,1.5942319736
1747018365974880909,-0.142,,,,1.595002128
1747018365982582453,-0.12,,,,1.5957722824
1747018365990283997,-0.122,,,,1.5965424368
1747018365997985541,-0.12,,,,1.5973125912
1747018366005687085,-0.112,,,,1.5980827456
1747018366013388629,-0.112,,,,1.5988529
1747018366021090173,-0.103,,,,1.5996230544
1747018366028791717,-0.095,,,,1.6003932088
1747018366036493261,-0.095,,,,1.6011633632
1747018366044194805,-0.093,,,,1.6019335176
1747018366051896349,-0.088,,,,1.602703672
1747018366059597893,-0.083,,,,1.6034738264
1747018366067299437,-0.083,,,,1.6042439808
1747018366075000981,-0.08,,,,1.6050141352
1747018366082702525,-0.066,,,,1.6057842896
1747018366090404069,-0.058,,,,1.606554444
1747018366098105613,-0.061,,,,1.6073245984
1747018366105807157,-0.056,,,,1.6080947528
1747018366113508701,-0.044,,,,1.6088649072
1747018366121210245,-0.026,,,,1.6096350616
1747018366128911789,-0.012,,,,1.610405216
1747018366136613333,0.002,,,,1.6111753704
1747018366144314877,0.022,,,,1.6119455248
1747018366152016421,0.036,,,,1.6127156792
1747018366159717965,0.044,,,,1.6134858336
1747018366167419509,0.044,,,,1.614255988
1747018366175121053,0.036,,,,1.6150261424
1747018366182822597,0.019,,,,1.6157962968
1747018366190524141,-0.031,,,,1.6165664512
1747018366198225685,-0.085,,,,1.6173366056
1747018366205927229,-0.125,,,,1.61810676
1747018366213628773,-0.152,,,,1.6188769144
1747018366221330317,-0.161,,,,1.6196470688
1747018366229031861,-0.169,,,,1.6204172232
1747018366236733405,-0.171,,,,1.6211873776
1747018366244434949,-0.166,,,,1.621957532
1747018366252136493,-0.166,,,,1.6227276864
1747018366259838037,-0.159,,,,1.6234978408
1747018366267539581,-0.149,,,,1.6242679952
1747018366275241125,-0.149,,,,1.6250381496
1747018366282942669,-0.149,,,,1.625808304
1747018366290644213,-0.149,,,,1.6265784584
1747018366298345757,-0.139,,,,1.6273486128
1747018366306047301,-0.142,,,,1.6281187672
1747018366313748845,-0.152,,,,1.6288889216
1747018366321450389,-0.149,,,,1.629659076
1747018366329151989,-0.139,70.0,882.0,,1.630429236
1747018366336853533,-0.139,,,,1.6311993904
1747018366344555077,-0.142,,,,1.6319695448
1747018366352256621,-0.142,,,,1.6327396992
1747018366359958165,-0.139,,,,1.6335098536
1747018366367659709,-0.142,,,,1.634280008
1747018366375361253,-0.142,,,,1.6350501624
1747018366383062797,-0.134,,,,1.6358203168
1747018366390764341,-0.137,,,,1.6365904712
1747018366398465885,-0.137,,,,1.6373606256
1747018366406167429,-0.132,,,,1.63813078
1747018366413868973,-0.132,,,,1.6389009344
1747018366421570517,-0.134,,,,1.6396710888
1747018366429272061,-0.134,,,,1.6404412432
1747018366436973605,-0.139,,,,1.6412113976
1747018366444675149,-0.137,,,,1.641981552
1747018366452376693,-0.132,,,,1.6427517064
1747018366460078237,-0.132,,,,1.6435218608
1747018366467779781,-0.13,,,,1.6442920152
1747018366475481325,-0.127,,,,1.6450621696
1747018366483182869,-0.127,,,,1.645832324
1747018366490884413,-0.13,,,,1.6466024784
1747018366498585957,-0.125,,,,1.6473726328
1747018366506287501,-0.127,,,,1.6481427872
1747018366513989045,-0.134,,,,1.6489129416
1747018366521690589,-0.127,,,,1.649683096
1747018366529392133,-0.13,,,,1.6504532504
1747018366537093677,-0.132,,,,1.6512234048
1747018366544795221,-0.122,,,,1.6519935592
1747018366552496765,-0.125,,,,1.6527637136
1747018366560198309,-0.13,,,,1.653533868
1747018366567899853,-0.13,,,,1.6543040224
1747018366575601397,-0.132,,,,1.6550741768
1747018366583302941,-0.125,,,,1.6558443312
1747018366591004485,-0.103,,,,1.6566144856
1747018366598706029,-0.093,,,,1.65738464
1747018366606407573,-0.107,,,,1.6581547944
1747018366614109117,-0.12,,,,1.6589249488
1747018366621810661,-0.122,,,,1.6596951032
1747018366629512205,-0.132,,,,1.6604652576
1747018366637213749,-0.132,,,,1.661235412
1747018366644915293,-0.127,,,,1.6620055664
1747018366652616837,-0.13,,,,1.6627757208
1747018366660318381,-0.127,,,,1.6635458752
1747018366668019925,-0.13,,,,1.6643160296
1747018366675721469,-0.134,,,,1.665086184
1747018366683423013,-0.127,,,,1.6658563384
1747018366691124557,-0.122,,,,1.6666264928
1747018366698826101,-0.12,,,,1.6673966472
1747018366706527645,-0.08,,,,1.6681668016
1747018366714229189,0.056,,,,1.668936956
1747018366721930733,0.331,,,,1.6697071104
1747018366729632277,0.549,,,,1.6704772648
1747018366737333821,0.309,,,,1.6712474192
1747018366745035365,-0.23,,,,1.6720175736
1747018366752736909,-0.333,,,,1.672787728
1747018366760438453,-0.115,,,,1.6735578824
1747018366768139997,-0.157,,,,1.6743280368
1747018366775841541,-0.25,,,,1.6750981912
1747018366783543085,-0.176,,,,1.6758683456
1747018366791244629,-0.149,,,,1.6766385
1747018366798946173,-0.181,,,,1.6774086544
1747018366806647717,-0.159,,,,1.6781788088
1747018366814349261,-0.144,,,,1.6789489632
1747018366822050805,-0.152,,,,1.6797191176
1747018366829752349,-0.144,,,,1.680489272
1747018366837453893,-0.13,,,,1.6812594264
1747018366845155437,-0.127,,,,1.6820295808
1747018366852856981,-0.13,,,,1.6827997352
1747018366860558525,-0.127,,,,1.6835698896
1747018366868260069,-0.122,,,,1.684340044
1747018366875961613,-0.115,,,,1.6851101984
1747018366883663157,-0.098,,,,1.6858803528
1747018366891364761,-0.09,,,,1.6866505132
1747018366899066305,-0.09,,,,1.6874206676
1747018366906767849,-0.09,,,,1.688190822
1747018366914469393,-0.085,,,,1.6889609764
1747018366922170937,-0.068,,,,1.6897311308
1747018366929872481,-0.058,,,,1.6905012852
1747018366937574025,-0.051,,,,1.6912714396
1747018366945275569,-0.034,,,,1.692041594
1747018366952977113,-0.017,,,,1.6928117484
1747018366960678657,-0.002,,,,1.6935819028
1747018366968380201,0.014,,,,1.6943520572
1747018366976081745,0.036,,,,1.6951222116
1747018366983783289,0.051,,,,1.695892366
1747018366991484833,0.058,,,,1.6966625204
1747018366999186377,0.056,,,,1.6974326748
1747018367006887921,0.036,,,,1.6982028292
1747018367014589465,0.0,,,,1.6989729836
1747018367022291009,-0.046,,,,1.699743138
1747018367029992553,-0.103,,,,1.7005132924
1747018367037694097,-0.144,,,,1.7012834468
1747018367045395641,-0.159,,,,1.7020536012
1747018367053097185,-0.169,,,,1.7028237556
1747018367060798729,-0.171,,,,1.70359391
1747018367068500273,-0.164,,,,1.7043640644
1747018367076201817,-0.161,,,,1.7051342188
1747018367083903361,-0.154,,,,1.7059043732
1747018367091604905,-0.149,,,,1.7066745276
1747018367099306449,-0.144,,,,1.707444682
1747018367107007993,-0.139,,,,1.7082148364
1747018367114709537,-0.139,,,,1.7089849908
1747018367122411081,-0.134,,,,1.7097551452
1747018367130112625,-0.132,,,,1.7105252996
1747018367137814169,-0.127,,,,1.711295454
1747018367145515713,-0.122,,,,1.7120656084
1747018367153217257,-0.127,,,,1.7128357628
1747018367160918801,-0.122,,,,1.7136059172
1747018367168620345,-0.117,,,,1.7143760716
1747018367176321889,-0.112,,,,1.715146226
1747018367184023433,-0.115,,,,1.7159163804
1747018367191724977,-0.117,,,,1.7166865348
1747018367199426521,-0.11,,,,1.7174566892
1747018367207128065,-0.103,,,,1.7182268436
1747018367214829609,-0.11,,,,1.718996998
1747018367222531153,-0.112,,,,1.7197671524
1747018367230232697,-0.11,,,,1.7205373068
1747018367237934241,-0.103,,,,1.7213074612
1747018367245635785,-0.103,,,,1.7220776156
1747018367253337329,-0.112,,,,1.72284777
1747018367261038873,-0.11,,,,1.7236179244
1747018367268740417,-0.107,,,,1.7243880788
1747018367276441961,-0.105,,,,1.7251582332
1747018367284143505,-0.103,,,,1.7259283876
1747018367291845049,-0.105,,,,1.726698542
1747018367299546593,-0.105,,,,1.7274686964
1747018367307248137,-0.103,,,,1.7282388508
1747018367314949681,-0.105,,,,1.7290090052
1747018367322651225,-0.103,,,,1.7297791596
1747018367330352769,-0.098,,,,1.730549314
1747018367338054313,-0.098,,,,1.7313194684
1747018367345755857,-0.1,,,,1.7320896228
1747018367353457401,-0.103,,,,1.7328597772
1747018367361158945,-0.095,,,,1.7336299316
1747018367368860489,-0.095,,,,1.734400086
1747018367376562033,-0.098,,,,1.7351702404
1747018367384263577,-0.098,,,,1.7359403948
1747018367391965121,-0.105,,,,1.7367105492
1747018367399666665,-0.103,,,,1.7374807036
1747018367407368209,-0.09,,,,1.738250858
1747018367415069753,-0.095,,,,1.7390210124
1747018367422771297,-0.095,,,,1.7397911668
1747018367430472841,-0.083,,,,1.7405613212
1747018367438174385,-0.071,,,,1.7413314756
1747018367445875929,-0.071,,,,1.74210163
1747018367453577529,-0.08,70.0,888.0,,1.74287179
1747018367461279073,-0.083,,,,1.7436419444
1747018367468980617,-0.085,,,,1.7444120988
1747018367476682161,-0.098,,,,1.7451822532
1747018367484383705,-0.1,,,,1.7459524076
1747018367492085249,-0.09,,,,1.746722562
1747018367499786793,-0.093,,,,1.7474927164
1747018367507488337,-0.103,,,,1.7482628708
1747018367515189881,-0.098,,,,1.7490330252
1747018367522891425,-0.083,,,,1.7498031796
1747018367530592969,-0.08,,,,1.750573334
1747018367538294513,-0.088,,,,1.7513434884
1747018367545996057,-0.083,,,,1.7521136428
1747018367553697601,-0.051,,,,1.7528837972
1747018367561399145,0.08,,,,1.7536539516
1747018367569100689,0.358,,,,1.754424106
1747018367576802233,0.579,,,,1.7551942604
1747018367584503777,0.341,,,,1.7559644148
1747018367592205321,-0.181,,,,1.7567345692
1747018367599906865,-0.279,,,,1.7575047236
1747018367607608409,-0.083,,,,1.758274878
1747018367615309953,-0.122,,,,1.7590450324
1747018367623011497,-0.201,,,,1.7598151868
1747018367630713041,-0.134,,,,1.7605853412
1747018367638414585,-0.117,,,,1.7613554956
1747018367646116129,-0.144,,,,1.76212565
1747018367653817673,-0.127,,,,1.7628958044
1747018367661519217,-0.112,,,,1.7636659588
1747018367669220761,-0.117,,,,1.7644361132
1747018367676922305,-0.105,,,,1.7652062676
1747018367684623849,-0.093,,,,1.765976422
1747018367692325393,-0.105,,,,1.7667465764
1747018367700026937,-0.1,,,,1.7675167308
1747018367707728481,-0.09,,,,1.7682868852
1747018367715430025,-0.09,,,,1.7690570396
1747018367723131569,-0.088,,,,1.769827194
1747018367730833113,-0.08,,,,1.7705973484
1747018367738534657,-0.073,,,,1.7713675028
1747018367746236201,-0.068,,,,1.7721376572
1747018367753937745,-0.061,,,,1.7729078116
1747018367761639289,-0.053,,,,1.773677966
1747018367769340833,-0.049,,,,1.7744481204
1747018367777042377,-0.039,,,,1.7752182748
1747018367784743921,-0.029,,,,1.7759884292
1747018367792445465,-0.017,,,,1.7767585836
1747018367800147009,-0.002,,,,1.777528738
1747018367807848553,0.012,,,,1.7782988924
1747018367815550097,0.024,,,,1.7790690468
1747018367823251641,0.044,,,,1.7798392012
1747018367830953185,0.061,,,,1.7806093556
1747018367838654729,0.073,,,,1.78137951
1747018367846356273,0.071,,,,1.7821496644
1747018367854057817,0.051,,,,1.7829198188
1747018367861759361,0.017,,,,1.7836899732
1747018367869460905,-0.031,,,,1.7844601276
1747018367877162449,-0.076,,,,1.785230282
1747018367884863993,-0.112,,,,1.7860004364
1747018367892565537,-0.134,,,,1.7867705908
1747018367900267081,-0.137,,,,1.7875407452
1747018367907968625,-0.134,,,,1.7883108996
1747018367915670169,-0.137,,,,1.789081054
1747018367923371713,-0.132,,,,1.7898512084
1747018367931073257,-0.127,,,,1.7906213628
1747018367938774801,-0.125,,,,1.7913915172
1747018367946476345,-0.12,,,,1.7921616716
1747018367954177889,-0.112,,,,1.792931826
1747018367961879433,-0.11,,,,1.7937019804
1747018367969580977,-0.115,,,,1.7944721348
1747018367977282521,-0.105,,,,1.7952422892
1747018367984984065,-0.098,,,,1.7960124436
1747018367992685609,-0.105,,,,1.796782598
1747018368000387153,-0.105,,,,1.7975527524
1747018368008088697,-0.098,,,,1.7983229068
1747018368015790297,-0.1,70.0,880.0,,1.7990930668
1747018368023491841,-0.098,,,,1.7998632212
1747018368031193385,-0.098,,,,1.8006333756
1747018368038894929,-0.1,,,,1.80140353
1747018368046596473,-0.1,,,,1.8021736844
1747018368054298017,-0.1,,,,1.8029438388
1747018368061999561,-0.098,,,,1.8037139932
1747018368069701105,-0.095,,,,1.8044841476
1747018368077402649,-0.09,,,,1.805254302
1747018368085104193,-0.085,,,,1.8060244564
1747018368092805737,-0.09,,,,1.8067946108
1747018368100507281,-0.09,,,,1.8075647652
1747018368108208825,-0.09,,,,1.8083349196
1747018368115910369,-0.09,,,,1.809105074
1747018368123611913,-0.085,,,,1.8098752284
1747018368131313457,-0.088,,,,1.8106453828
1747018368139015001,-0.088,,,,1.8114155372
1747018368146716545,-0.085,,,,1.8121856916
1747018368154418089,-0.085,,,,1.812955846
1747018368162119633,-0.078,,,,1.8137260004
1747018368169821177,-0.083,,,,1.8144961548
1747018368177522721,-0.088,,,,1.8152663092
1747018368185224265,-0.085,,,,1.8160364636
1747018368192925809,-0.083,,,,1.816806618
1747018368200627353,-0.083,,,,1.8175767724
1747018368208328897,-0.085,,,,1.8183469268
1747018368216030441,-0.083,,,,1.8191170812
1747018368223731985,-0.08,,,,1.8198872356
1747018368231433529,-0.083,,,,1.82065739
1747018368239135073,-0.078,,,,1.8214275444
1747018368246836617,-0.08,,,,1.8221976988
1747018368254538161,-0.09,,,,1.8229678532
1747018368262239705,-0.085,,,,1.8237380076
1747018368269941249,-0.078,,,,1.824508162
1747018368277642793,-0.08,,,,1.8252783164
1747018368285344337,-0.076,,,,1.8260484708
1747018368293045881,-0.061,,,,1.8268186252
1747018368300747425,-0.058,,,,1.8275887796
1747018368308448969,-0.076,,,,1.828358934
1747018368316150513,-0.08,,,,1.8291290884
1747018368323852057,-0.08,,,,1.8298992428
1747018368331553601,-0.098,,,,1.8306693972
1747018368339255145,-0.095,,,,1.8314395516
1747018368346956689,-0.083,,,,1.832209706
1747018368354658233,-0.085,,,,1.8329798604
1747018368362359777,-0.09,,,,1.8337500148
1747018368370061321,-0.09,,,,1.8345201692
1747018368377762865,-0.085,,,,1.8352903236
1747018368385464409,-0.085,,,,1.836060478
1747018368393165953,-0.085,,,,1.8368306324
1747018368400867497,-0.068,,,,1.8376007868
1747018368408569041,-0.002,,,,1.8383709412
1747018368416270585,0.193,,,,1.8391410956
1747018368423972129,0.495,,,,1.83991125
1747018368431673673,0.539,,,,1.8406814044
1747018368439375217,0.088,,,,1.8414515588
1747018368447076761,-0.304,,,,1.8422217132
1747018368454778305,-0.184,,,,1.8429918676
1747018368462479849,-0.068,,,,1.843762022
1747018368470181393,-0.186,,,,1.8445321764
1747018368477882937,-0.186,,,,1.8453023308
1747018368485584481,-0.115,,,,1.8460724852
1747018368493286025,-0.139,,,,1.8468426396
1747018368500987569,-0.147,,,,1.847612794
1747018368508689113,-0.12,,,,1.8483829484
1747018368516390657,-0.117,,,,1.8491531028
1747018368524092201,-0.12,,,,1.8499232572
1747018368531793745,-0.11,,,,1.8506934116
1747018368539495289,-0.1,,,,1.851463566
1747018368547196833,-0.1,,,,1.8522337204
1747018368554898377,-0.098,,,,1.8530038748
1747018368562599921,-0.088,,,,1.8537740292
1747018368570301465,-0.088,,,,1.8545441836
1747018368578003065,-0.083,,,,1.8553143436
1747018368585704609,-0.078,,,,1.856084498
1747018368593406153,-0.08,,,,1.8568546524
1747018368601107697,-0.071,,,,1.8576248068
1747018368608809241,-0.061,,,,1.8583949612
1747018368616510785,-0.053,,,,1.8591651156
1747018368624212329,-0.044,,,,1.85993527
1747018368631913873,-0.036,,,,1.8607054244
1747018368639615417,-0.024,,,,1.8614755788
1747018368647316961,-0.007,,,,1.8622457332
1747018368655018505,0.009,,,,1.8630158876
1747018368662720049,0.024,,,,1.863786042
1747018368670421593,0.039,,,,1.8645561964
1747018368678123137,0.053,,,,1.8653263508
1747018368685824681,0.068,,,,1.8660965052
1747018368693526225,0.073,,,,1.8668666596
1747018368701227769,0.068,,,,1.867636814
1747018368708929313,0.036,,,,1.8684069684
1747018368716630857,-0.007,,,,1.8691771228
1747018368724332401,-0.044,,,,1.8699472772
1747018368732033945,-0.085,,,,1.8707174316
1747018368739735489,-0.12,,,,1.871487586
1747018368747437033,-0.137,,,,1.8722577404
1747018368755138577,-0.147,,,,1.8730278948
1747018368762840121,-0.142,,,,1.8737980492
1747018368770541665,-0.134,,,,1.8745682036
1747018368778243209,-0.13,,,,1.875338358
1747018368785944753,-0.127,,,,1.8761085124
1747018368793646297,-0.122,,,,1.8768786668
1747018368801347841,-0.115,,,,1.8776488212
1747018368809049385,-0.11,,,,1.8784189756
1747018368816750929,-0.105,,,,1.87918913
1747018368824452473,-0.103,,,,1.8799592844
1747018368832154017,-0.107,,,,1.8807294388
1747018368839855561,-0.103,,,,1.8814995932
1747018368847557105,-0.098,,,,1.8822697476
1747018368855258649,-0.103,,,,1.883039902
1747018368862960193,-0.098,,,,1.8838100564
1747018368870661737,-0.09,,,,1.8845802108
1747018368878363281,-0.093,,,,1.8853503652
1747018368886064825,-0.09,,,,1.8861205196
1747018368893766369,-0.09,,,,1.886890674
1747018368901467913,-0.098,,,,1.8876608284
1747018368909169457,-0.098,,,,1.8884309828
1747018368916871001,-0.088,,,,1.8892011372
1747018368924572545,-0.085,,,,1.8899712916
1747018368932274089,-0.095,,,,1.890741446
1747018368939975633,-0.095,,,,1.8915116004
1747018368947677177,-0.088,,,,1.8922817548
1747018368955378721,-0.088,,,,1.8930519092
1747018368963080265,-0.09,,,,1.8938220636
1747018368970781809,-0.093,,,,1.894592218
1747018368978483353,-0.088,,,,1.8953623724
1747018368986184897,-0.085,,,,1.8961325268
1747018368993886441,-0.088,,,,1.8969026812
1747018369001587985,-0.085,,,,1.8976728356
1747018369009289529,-0.085,,,,1.89844299
1747018369016991073,-0.088,,,,1.8992131444
1747018369024692617,-0.085,,,,1.8999832988
1747018369032394161,-0.083,,,,1.9007534532
1747018369040095705,-0.085,,,,1.9015236076
1747018369047797249,-0.088,,,,1.902293762
1747018369055498793,-0.088,,,,1.9030639164
1747018369063200337,-0.083,,,,1.9038340708
1747018369070901881,-0.085,,,,1.9046042252
1747018369078603425,-0.085,,,,1.9053743796
1747018369086304969,-0.083,,,,1.906144534
1747018369094006513,-0.083,,,,1.9069146884
1747018369101708057,-0.08,,,,1.9076848428
1747018369109409601,-0.08,,,,1.9084549972
1747018369117111145,-0.08,,,,1.9092251516
1747018369124812689,-0.078,,,,1.909995306
1747018369132514233,-0.08,,,,1.9107654604
1747018369140215833,-0.08,70.0,829.0,,1.9115356204
1747018369147917795,-0.08,,,,1.9123058166
1747018369155619757,-0.083,,,,1.9130760128
1747018369163321719,-0.083,,,,1.913846209
1747018369171023681,-0.068,,,,1.9146164052
1747018369178725643,-0.056,,,,1.9153866014
1747018369186427605,-0.061,,,,1.9161567976
1747018369194129567,-0.071,,,,1.9169269938
1747018369201831529,-0.066,,,,1.91769719
1747018369209533491,-0.078,,,,1.9184673862
1747018369217235453,-0.095,,,,1.9192375824
1747018369224937415,-0.088,,,,1.9200077786
1747018369232639377,-0.083,,,,1.9207779748
1747018369240341339,-0.088,,,,1.921548171
1747018369248043301,-0.085,,,,1.9223183672
1747018369255745263,-0.083,,,,1.9230885634
1747018369263447225,-0.08,,,,1.9238587596
1747018369271149187,-0.08,,,,1.9246289558
1747018369278851149,-0.08,,,,1.925399152
1747018369286553111,-0.066,,,,1.9261693482
1747018369294255073,0.014,,,,1.9269395444
1747018369301957035,0.235,,,,1.9277097406
1747018369309658997,0.525,,,,1.9284799368
1747018369317360959,0.515,,,,1.929250133
1747018369325062921,0.026,,,,1.9300203292
1747018369332764883,-0.311,,,,1.9307905254
1747018369340466845,-0.149,,,,1.9315607216
1747018369348168807,-0.073,,,,1.9323309178
1747018369355870769,-0.198,,,,1.933101114
1747018369363572731,-0.174,,,,1.9338713102
1747018369371274693,-0.11,,,,1.9346415064
1747018369378976655,-0.139,,,,1.9354117026
1747018369386678617,-0.139,,,,1.9361818988
1747018369394380579,-0.115,,,,1.936952095
1747018369402082541,-0.112,,,,1.9377222912
1747018369409784503,-0.112,,,,1.9384924874
1747018369417486465,-0.1,,,,1.9392626836
1747018369425188427,-0.098,,,,1.9400328798
1747018369432890389,-0.1,,,,1.940803076
1747018369440592351,-0.093,,,,1.9415732722
1747018369448294313,-0.088,,,,1.9423434684
1747018369455996275,-0.088,,,,1.9431136646
1747018369463698237,-0.076,,,,1.9438838608
1747018369471400199,-0.073,,,,1.944654057
1747018369479102161,-0.076,,,,1.9454242532
1747018369486804123,-0.066,,,,1.9461944494
1747018369494506085,-0.056,,,,1.9469646456
1747018369502208047,-0.056,,,,1.9477348418
1747018369509910009,-0.053,,,,1.948505038
1747018369517611971,-0.039,,,,1.9492752342
1747018369525313933,-0.024,,,,1.9500454304
1747018369533015895,-0.012,,,,1.9508156266
1747018369540717857,0.007,,,,1.9515858228
1747018369548419819,0.026,,,,1.952356019
1747018369556121781,0.036,,,,1.9531262152
1747018369563823743,0.053,,,,1.9538964114
1747018369571525705,0.066,,,,1.9546666076
1747018369579227667,0.071,,,,1.9554368038
1747018369586929629,0.071,,,,1.956207
1747018369594631591,0.044,,,,1.9569771962
1747018369602333553,-0.002,,,,1.9577473924
1747018369610035515,-0.056,,,,1.9585175886
1747018369617737477,-0.098,,,,1.9592877848
1747018369625439439,-0.112,,,,1.960057981
1747018369633141401,-0.127,,,,1.9608281772
1747018369640843363,-0.139,,,,1.9615983734
1747018369648545325,-0.142,,,,1.9623685696
1747018369656247287,-0.139,,,,1.9631387658
1747018369663949249,-0.13,,,,1.963908962
1747018369671651211,-0.127,,,,1.9646791582
1747018369679353173,-0.122,,,,1.9654493544
1747018369687055135,-0.115,,,,1.9662195506
1747018369694757097,-0.115,,,,1.9669897468
1747018369702459123,-0.112,,,,1.9677599494
1747018369710160667,-0.105,,,,1.9685301038
1747018369717862211,-0.103,,,,1.9693002582
1747018369725563755,-0.098,,,,1.9700704126
1747018369733265299,-0.1,,,,1.970840567
1747018369740966843,-0.103,,,,1.9716107214
1747018369748668387,-0.1,,,,1.9723808758
1747018369756369931,-0.095,,,,1.9731510302
1747018369764071475,-0.098,,,,1.9739211846
1747018369771773019,-0.103,,,,1.974691339
1747018369779474563,-0.095,,,,1.9754614934
1747018369787176107,-0.09,,,,1.9762316478
1747018369794877651,-0.093,,,,1.9770018022
1747018369802579195,-0.095,,,,1.9777719566
1747018369810280739,-0.098,,,,1.978542111
1747018369817982283,-0.093,,,,1.9793122654
1747018369825683827,-0.093,,,,1.9800824198
1747018369833385371,-0.098,,,,1.9808525742
1747018369841086915,-0.09,,,,1.9816227286
1747018369848788459,-0.088,,,,1.982392883
1747018369856490003,-0.095,,,,1.9831630374
1747018369864191547,-0.09,,,,1.9839331918
1747018369871893091,-0.085,,,,1.9847033462
1747018369879594635,-0.088,,,,1.9854735006
1747018369887296179,-0.088,,,,1.986243655
1747018369894997723,-0.085,,,,1.9870138094
1747018369902699267,-0.085,,,,1.9877839638
1747018369910400811,-0.093,,,,1.9885541182
1747018369918102355,-0.09,,,,1.9893242726
1747018369925803899,-0.083,,,,1.990094427
1747018369933505443,-0.088,,,,1.9908645814
1747018369941206987,-0.09,,,,1.9916347358
1747018369948908531,-0.085,,,,1.9924048902
1747018369956610075,-0.085,,,,1.9931750446
1747018369964311619,-0.088,,,,1.993945199
1747018369972013163,-0.093,,,,1.9947153534
1747018369979714707,-0.09,,,,1.9954855078
1747018369987416251,-0.085,,,,1.9962556622
1747018369995117795,-0.085,,,,1.9970258166
1747018370002819339,-0.088,,,,1.997795971
1747018370010520883,-0.088,,,,1.9985661254
1747018370018222427,-0.085,,,,1.9993362798
1747018370025923971,-0.083,,,,2.0001064342
1747018370033625515,-0.083,,,,2.0008765886
1747018370041327059,-0.085,,,,2.001646743
1747018370049028603,-0.088,,,,2.0024168974
1747018370056730147,-0.088,,,,2.0031870518
1747018370064431691,-0.088,,,,2.0039572062
1747018370072133235,-0.088,,,,2.0047273606
1747018370079834779,-0.071,,,,2.005497515
1747018370087536323,-0.058,,,,2.0062676694
1747018370095237867,-0.073,,,,2.0070378238
1747018370102939411,-0.08,,,,2.0078079782
1747018370110640955,-0.078,,,,2.0085781326
1747018370118342499,-0.088,,,,2.009348287
1747018370126044043,-0.095,,,,2.0101184414
1747018370133745587,-0.093,,,,2.0108885958
1747018370141447131,-0.088,,,,2.0116587502
1747018370149148675,-0.098,,,,2.0124289046
1747018370156850219,-0.1,,,,2.013199059
1747018370164551763,-0.093,,,,2.0139692134
1747018370172253307,-0.095,,,,2.0147393678
1747018370179954851,-0.095,,,,2.0155095222
1747018370187656395,-0.093,,,,2.0162796766
1747018370195357939,-0.08,,,,2.017049831
1747018370203059483,-0.002,,,,2.0178199854
1747018370210761027,0.211,,,,2.0185901398
1747018370218462571,0.515,,,,2.0193602942
1747018370226164115,0.532,,,,2.0201304486
1747018370233865659,0.039,,,,2.020900603
1747018370241567203,-0.333,,,,2.0216707574
1747018370249268747,-0.188,,,,2.0224409118
1747018370256970291,-0.09,,,,2.0232110662
1747018370264671891,-0.213,70.0,848.0,,2.0239812262
1747018370272373157,-0.201,,852.0,,2.0247513528
1747018370280074423,-0.134,,,,2.0255214794
1747018370287775689,-0.159,,,,2.026291606
1747018370295476955,-0.169,,,,2.0270617326
1747018370303178221,-0.144,,,,2.0278318592
1747018370310879487,-0.147,,,,2.0286019858
1747018370318580753,-0.142,,,,2.0293721124
1747018370326282019,-0.125,,,,2.030142239
1747018370333983285,-0.125,,,,2.0309123656
1747018370341684551,-0.13,,,,2.0316824922
1747018370349385817,-0.127,,,,2.0324526188
1747018370357087083,-0.122,,,,2.0332227454
1747018370364788349,-0.115,,,,2.033992872
1747018370372489615,-0.11,,,,2.0347629986
1747018370380190881,-0.1,,,,2.0355331252
1747018370387892147,-0.095,,,,2.0363032518
1747018370395593413,-0.095,,,,2.0370733784
1747018370403294679,-0.088,,,,2.037843505
1747018370410995945,-0.085,,,,2.0386136316
1747018370418697211,-0.076,,,,2.0393837582
1747018370426398477,-0.063,,,,2.0401538848
1747018370434099743,-0.061,,,,2.0409240114
1747018370441801009,-0.051,,,,2.041694138
1747018370449502275,-0.029,,,,2.0424642646
1747018370457203541,-0.014,,,,2.0432343912
1747018370464904807,0.002,,,,2.0440045178
1747018370472606073,0.022,,,,2.0447746444
1747018370480307339,0.036,,,,2.045544771
1747018370488008605,0.041,,,,2.0463148976
1747018370495709871,0.031,,,,2.0470850242
1747018370503411137,0.002,,,,2.0478551508
1747018370511112403,-0.051,,,,2.0486252774
1747018370518813669,-0.107,,,,2.049395404
1747018370526514935,-0.142,,,,2.0501655306
1747018370534216201,-0.171,,,,2.0509356572
1747018370541917467,-0.191,,,,2.0517057838
1747018370549618733,-0.196,,,,2.0524759104
1747018370557319999,-0.193,,,,2.053246037
1747018370565021265,-0.191,,,,2.0540161636
1747018370572722531,-0.193,,,,2.0547862902
1747018370580423797,-0.188,,,,2.0555564168
1747018370588125063,-0.184,,,,2.0563265434
1747018370595826329,-0.176,,,,2.05709667
1747018370603527595,-0.171,,,,2.0578667966
1747018370611228861,-0.171,,,,2.0586369232
1747018370618930127,-0.171,,,,2.0594070498
1747018370626631393,-0.164,,,,2.0601771764
1747018370634332659,-0.166,,,,2.060947303
1747018370642033925,-0.169,,,,2.0617174296
1747018370649735191,-0.166,,,,2.0624875562
1747018370657436457,-0.161,,,,2.0632576828
1747018370665137723,-0.161,,,,2.0640278094
1747018370672838989,-0.166,,,,2.064797936
1747018370680540255,-0.164,,,,2.0655680626
1747018370688241521,-0.164,,,,2.0663381892
1747018370695942787,-0.164,,,,2.0671083158
1747018370703644053,-0.164,,,,2.0678784424
1747018370711345319,-0.164,,,,2.068648569
1747018370719046585,-0.161,,,,2.0694186956
1747018370726747851,-0.166,,,,2.0701888222
1747018370734449117,-0.171,,,,2.0709589488
1747018370742150383,-0.161,,,,2.0717290754
1747018370749851649,-0.157,,,,2.072499202
1747018370757552915,-0.159,,,,2.0732693286
1747018370765254181,-0.157,,,,2.0740394552
1747018370772955447,-0.149,,,,2.0748095818
1747018370780656713,-0.154,,,,2.0755797084
1747018370788357979,-0.164,,,,2.076349835
1747018370796059245,-0.161,,,,2.0771199616
1747018370803760511,-0.147,,,,2.0778900882
1747018370811461777,-0.149,,,,2.0786602148
1747018370819163043,-0.157,,,,2.0794303414
1747018370826864315,-0.152,,,,2.0802004686
1747018370834565929,-0.149,,,,2.08097063
1747018370842267543,-0.154,,,,2.0817407914
1747018370849969157,-0.149,,,,2.0825109528
1747018370857670771,-0.139,,,,2.0832811142
1747018370865372385,-0.149,,,,2.0840512756
1747018370873073999,-0.159,,,,2.084821437
1747018370880775613,-0.152,,,,2.0855915984
1747018370888477227,-0.142,,,,2.0863617598
1747018370896178841,-0.139,,,,2.0871319212
1747018370903880455,-0.142,,,,2.0879020826
1747018370911582069,-0.144,,,,2.088672244
1747018370919283683,-0.142,,,,2.0894424054
1747018370926985297,-0.139,,,,2.0902125668
1747018370934686911,-0.13,,,,2.0909827282
1747018370942388525,-0.112,,,,2.0917528896
1747018370950090139,-0.12,,,,2.092523051
1747018370957791753,-0.134,,,,2.0932932124
1747018370965493367,-0.132,,,,2.0940633738
1747018370973194981,-0.134,,,,2.0948335352
1747018370980896595,-0.147,,,,2.0956036966
1747018370988598209,-0.142,,,,2.096373858
1747018370996299823,-0.134,,,,2.0971440194
1747018371004001437,-0.134,,,,2.0979141808
1747018371011703051,-0.137,,,,2.0986843422
1747018371019404665,-0.132,,,,2.0994545036
1747018371027106279,-0.125,,,,2.100224665
1747018371034807893,-0.127,,,,2.1009948264
1747018371042509507,-0.13,,,,2.1017649878
1747018371050211121,-0.11,,,,2.1025351492
1747018371057912735,-0.031,,,,2.1033053106
1747018371065614349,0.176,,,,2.104075472
1747018371073315963,0.476,,,,2.1048456334
1747018371081017577,0.507,,,,2.1056157948
1747018371088719191,0.026,,,,2.1063859562
1747018371096420805,-0.368,,,,2.1071561176
1747018371104122419,-0.215,,,,2.107926279
1747018371111824033,-0.095,,,,2.1086964404
1747018371119525647,-0.223,,,,2.1094666018
1747018371127227261,-0.218,,,,2.1102367632
1747018371134928875,-0.144,,,,2.1110069246
1747018371142630489,-0.164,,,,2.111777086
1747018371150332103,-0.171,,,,2.1125472474
1747018371158033717,-0.144,,,,2.1133174088
1747018371165735331,-0.139,,,,2.1140875702
1747018371173436945,-0.144,,,,2.1148577316
1747018371181138559,-0.137,,,,2.115627893
1747018371188840173,-0.132,,,,2.1163980544
1747018371196541787,-0.125,,,,2.1171682158
1747018371204243401,-0.112,,,,2.1179383772
1747018371211945015,-0.112,,,,2.1187085386
1747018371219646629,-0.11,,,,2.1194787
1747018371227348243,-0.098,,,,2.1202488614
1747018371235049857,-0.098,,,,2.1210190228
1747018371242751471,-0.098,,,,2.1217891842
1747018371250453085,-0.085,,,,2.1225593456
1747018371258154699,-0.076,,,,2.123329507
1747018371265856313,-0.076,,,,2.1240996684
1747018371273557927,-0.068,,,,2.1248698298
1747018371281259541,-0.046,,,,2.1256399912
1747018371288961155,-0.031,,,,2.1264101526
1747018371296662769,-0.026,,,,2.127180314
1747018371304364383,-0.009,,,,2.1279504754
1747018371312065997,0.009,,,,2.1287206368
1747018371319767611,0.026,,,,2.1294907982
1747018371327469225,0.049,,,,2.1302609596
1747018371335170839,0.061,,,,2.131031121
1747018371342872453,0.068,,,,2.1318012824
1747018371350574067,0.056,,,,2.1325714438
1747018371358275681,0.024,,,,2.1333416052
1747018371365977295,-0.024,,,,2.1341117666
1747018371373678909,-0.08,,,,2.134881928
1747018371381380523,-0.12,,,,2.1356520894
1747018371389082170,-0.142,70.0,885.0,,2.1364222541
1747018371396783505,-0.161,,,,2.1371923876
1747018371404484840,-0.166,,,,2.1379625211
1747018371412186175,-0.164,,,,2.1387326546
1747018371419887510,-0.166,,,,2.1395027881
1747018371427588845,-0.161,,,,2.1402729216
1747018371435290180,-0.152,,,,2.1410430551
1747018371442991515,-0.142,,,,2.1418131886
1747018371450692850,-0.142,,,,2.1425833221
1747018371458394185,-0.137,,,,2.1433534556
1747018371466095520,-0.127,,,,2.1441235891
1747018371473796855,-0.13,,,,2.1448937226
1747018371481498190,-0.13,,,,2.1456638561
1747018371489199525,-0.12,,,,2.1464339896
1747018371496900860,-0.117,,,,2.1472041231
1747018371504602195,-0.117,,,,2.1479742566
1747018371512303530,-0.117,,,,2.1487443901
1747018371520004865,-0.115,,,,2.1495145236
1747018371527706200,-0.112,,,,2.1502846571
1747018371535407535,-0.112,,,,2.1510547906
1747018371543108870,-0.107,,,,2.1518249241
1747018371550810205,-0.107,,,,2.1525950576
1747018371558511540,-0.11,,,,2.1533651911
1747018371566212875,-0.105,,,,2.1541353246
1747018371573914210,-0.105,,,,2.1549054581
1747018371581615545,-0.11,,,,2.1556755916
1747018371589316880,-0.112,,,,2.1564457251
1747018371597018215,-0.105,,,,2.1572158586
1747018371604719550,-0.098,,,,2.1579859921
1747018371612420885,-0.1,,,,2.1587561256
1747018371620122220,-0.095,,,,2.1595262591
1747018371627823555,-0.085,,,,2.1602963926
1747018371635524890,-0.09,,,,2.1610665261
1747018371643226225,-0.09,,,,2.1618366596
1747018371650927560,-0.09,,,,2.1626067931
1747018371658628895,-0.093,,,,2.1633769266
1747018371666330230,-0.09,,,,2.1641470601
1747018371674031565,-0.085,,,,2.1649171936
