time,ecg,hr,rr,marker,norm_time
1740465463201774113,0.055,60.0,1054.0,,0.0
1740465463209477399,0.033,,,,0.0007703286
1740465463217180685,0.0,,,,0.0015406572
1740465463224883971,-0.043,,,,0.0023109858
1740465463232587257,-0.087,,,,0.0030813144
1740465463240290543,-0.128,,,,0.003851643
1740465463247993829,-0.159,,,,0.0046219716
1740465463255697115,-0.179,,,,0.0053923002
1740465463263400401,-0.193,,,,0.0061626288
1740465463271103687,-0.196,,,,0.0069329574
1740465463278806973,-0.191,,,,0.007703286
1740465463286510259,-0.186,,,,0.0084736146
1740465463294213545,-0.179,,,,0.0092439432
1740465463301916831,-0.167,,,,0.0100142718
1740465463309620117,-0.159,,,,0.0107846004
1740465463317323403,-0.15,,,,0.011554929
1740465463325026689,-0.142,,,,0.0123252576
1740465463332729975,-0.133,,,,0.0130955862
1740465463340433261,-0.123,,,,0.0138659148
1740465463348136547,-0.113,,,,0.0146362434
1740465463355839833,-0.106,,,,0.015406572
1740465463363543119,-0.104,,,,0.0161769006
1740465463371246405,-0.099,,,,0.0169472292
1740465463378949691,-0.096,,,,0.0177175578
1740465463386652977,-0.094,,,,0.0184878864
1740465463394356263,-0.094,,,,0.019258215
1740465463402059549,-0.096,,,,0.0200285436
1740465463409762835,-0.096,,,,0.0207988722
1740465463417466121,-0.096,,,,0.0215692008
1740465463425169407,-0.096,,,,0.0223395294
1740465463432872693,-0.101,,,,0.023109858
1740465463440575979,-0.101,,,,0.0238801866
1740465463448279265,-0.104,,,,0.0246505152
1740465463455982551,-0.104,,,,0.0254208438
1740465463463685837,-0.104,,,,0.0261911724
1740465463471389123,-0.104,,,,0.026961501
1740465463479092409,-0.106,,,,0.0277318296
1740465463486795695,-0.106,,,,0.0285021582
1740465463494498981,-0.104,,,,0.0292724868
1740465463502202267,-0.106,,,,0.0300428154
1740465463509905553,-0.104,,,,0.030813144
1740465463517608839,-0.099,,,,0.0315834726
1740465463525312125,-0.101,,,,0.0323538012
1740465463533015411,-0.101,,,,0.0331241298
1740465463540718697,-0.099,,,,0.0338944584
1740465463548421983,-0.099,,,,0.034664787
1740465463556125269,-0.096,,,,0.0354351156
1740465463563828555,-0.096,,,,0.0362054442
1740465463571531841,-0.092,,,,0.0369757728
1740465463579235127,-0.089,,,,0.0377461014
1740465463586938413,-0.092,,,,0.03851643
1740465463594641699,-0.094,,,,0.0392867586
1740465463602344985,-0.094,,,,0.0400570872
1740465463610048271,-0.092,,,,0.0408274158
1740465463617751557,-0.092,,,,0.0415977444
1740465463625454843,-0.092,,,,0.042368073
1740465463633158129,-0.089,,,,0.0431384016
1740465463640861415,-0.089,,,,0.0439087302
1740465463648564701,-0.089,,,,0.0446790588
1740465463656267987,-0.089,,,,0.0454493874
1740465463663971273,-0.087,,,,0.046219716
1740465463671674559,-0.084,,,,0.0469900446
1740465463679377845,-0.087,,,,0.0477603732
1740465463687081131,-0.089,,,,0.0485307018
1740465463694784417,-0.087,,,,0.0493010304
1740465463702487703,-0.077,,,,0.050071359
1740465463710190989,-0.07,,,,0.0508416876
1740465463717894275,-0.062,,,,0.0516120162
1740465463725597561,-0.06,,,,0.0523823448
1740465463733300847,-0.07,,,,0.0531526734
1740465463741004133,-0.084,,,,0.053923002
1740465463748707419,-0.094,,,,0.0546933306
1740465463756410705,-0.089,,,,0.0554636592
1740465463764114044,-0.087,,,,0.0562339931
1740465463771817609,-0.089,,,,0.0570043496
1740465463779521174,-0.089,,,,0.0577747061
1740465463787224739,-0.087,,,,0.0585450626
1740465463794928304,-0.087,,,,0.0593154191
1740465463802631869,-0.087,,,,0.0600857756
1740465463810335434,-0.087,,,,0.0608561321
1740465463818038999,-0.084,,,,0.0616264886
1740465463825742564,-0.082,,,,0.0623968451
1740465463833446129,-0.087,,,,0.0631672016
1740465463841149694,-0.104,,,,0.0639375581
1740465463848853259,-0.092,,,,0.0647079146
1740465463856556824,0.036,,,,0.0654782711
1740465463864260389,0.266,,,,0.0662486276
1740465463871963954,0.472,,,,0.0670189841
1740465463879667519,0.687,,,,0.0677893406
1740465463887371084,0.76,,,,0.0685596971
1740465463895074649,0.232,,,,0.0693300536
1740465463902778214,-0.464,,,,0.0701004101
1740465463910481779,-0.447,,,,0.0708707666
1740465463918185344,-0.118,,,,0.0716411231
1740465463925888909,-0.128,,,,0.0724114796
1740465463933592474,-0.205,,,,0.0731818361
1740465463941296039,-0.14,,,,0.0739521926
1740465463948999604,-0.118,,,,0.0747225491
1740465463956703169,-0.14,,,,0.0754929056
1740465463964406734,-0.116,,,,0.0762632621
1740465463972110299,-0.096,,,,0.0770336186
1740465463979813864,-0.099,,,,0.0778039751
1740465463987517429,-0.092,,,,0.0785743316
1740465463995220994,-0.079,,,,0.0793446881
1740465464002924559,-0.075,,,,0.0801150446
1740465464010628124,-0.07,,,,0.0808854011
1740465464018331689,-0.062,,,,0.0816557576
1740465464026035254,-0.055,,,,0.0824261141
1740465464033738819,-0.05,,,,0.0831964706
1740465464041442384,-0.043,,,,0.0839668271
1740465464049145949,-0.036,,,,0.0847371836
1740465464056849514,-0.029,,,,0.0855075401
1740465464064553079,-0.021,,,,0.0862778966
1740465464072256644,-0.014,,,,0.0870482531
1740465464079960209,-0.004,,,,0.0878186096
1740465464087663774,0.004,,,,0.0885889661
1740465464095367339,0.014,,,,0.0893593226
1740465464103070904,0.026,,,,0.0901296791
1740465464110774469,0.038,,,,0.0909000356
1740465464118478034,0.05,,,,0.0916703921
1740465464126181599,0.058,,,,0.0924407486
1740465464133885164,0.065,,,,0.0932111051
1740465464141588729,0.07,,,,0.0939814616
1740465464149292294,0.067,,,,0.0947518181
1740465464156995859,0.067,,,,0.0955221746
1740465464164699424,0.062,,,,0.0962925311
1740465464172402989,0.05,,,,0.0970628876
1740465464180106554,0.029,,,,0.0978332441
1740465464187810119,-0.007,,,,0.0986036006
1740465464195513684,-0.048,,,,0.0993739571
1740465464203217249,-0.089,,,,0.1001443136
1740465464210920814,-0.123,,,,0.1009146701
1740465464218624379,-0.154,,,,0.1016850266
1740465464226327944,-0.174,,,,0.1024553831
1740465464234031509,-0.181,,,,0.1032257396
1740465464241735074,-0.181,,,,0.1039960961
1740465464249438639,-0.176,,,,0.1047664526
1740465464257142204,-0.171,,,,0.1055368091
1740465464264845769,-0.164,,,,0.1063071656
1740465464272549334,-0.157,,,,0.1070775221
1740465464280252899,-0.147,,,,0.1078478786
1740465464287956464,-0.142,,,,0.1086182351
1740465464295660029,-0.135,,,,0.1093885916
1740465464303363594,-0.125,,,,0.1101589481
1740465464311067159,-0.121,,,,0.1109293046
1740465464318770724,-0.116,,,,0.1116996611
1740465464326474315,-0.111,60.0,1014.0,,0.1124700202
1740465464334177741,-0.104,,,,0.1132403628
1740465464341881167,-0.101,,,,0.1140107054
1740465464349584593,-0.099,,,,0.114781048
1740465464357288019,-0.099,,,,0.1155513906
1740465464364991445,-0.096,,,,0.1163217332
1740465464372694871,-0.099,,,,0.1170920758
1740465464380398297,-0.096,,,,0.1178624184
1740465464388101723,-0.094,,,,0.118632761
1740465464395805149,-0.094,,,,0.1194031036
1740465464403508575,-0.096,,,,0.1201734462
1740465464411212001,-0.096,,,,0.1209437888
1740465464418915427,-0.099,,,,0.1217141314
1740465464426618853,-0.099,,,,0.122484474
1740465464434322279,-0.099,,,,0.1232548166
1740465464442025705,-0.099,,,,0.1240251592
1740465464449729131,-0.099,,,,0.1247955018
1740465464457432557,-0.101,,,,0.1255658444
1740465464465135983,-0.101,,,,0.126336187
1740465464472839409,-0.101,,,,0.1271065296
1740465464480542835,-0.099,,,,0.1278768722
1740465464488246261,-0.096,,,,0.1286472148
1740465464495949687,-0.099,,,,0.1294175574
1740465464503653113,-0.096,,,,0.1301879
1740465464511356539,-0.094,,,,0.1309582426
1740465464519059965,-0.094,,,,0.1317285852
1740465464526763391,-0.092,,,,0.1324989278
1740465464534466817,-0.092,,,,0.1332692704
1740465464542170243,-0.092,,,,0.134039613
1740465464549873669,-0.092,,,,0.1348099556
1740465464557577095,-0.089,,,,0.1355802982
1740465464565280521,-0.089,,,,0.1363506408
1740465464572983947,-0.087,,,,0.1371209834
1740465464580687373,-0.087,,,,0.137891326
1740465464588390799,-0.087,,,,0.1386616686
1740465464596094225,-0.087,,,,0.1394320112
1740465464603797651,-0.087,,,,0.1402023538
1740465464611501077,-0.087,,,,0.1409726964
1740465464619204503,-0.087,,,,0.141743039
1740465464626907929,-0.087,,,,0.1425133816
1740465464634611355,-0.087,,,,0.1432837242
1740465464642314781,-0.087,,,,0.1440540668
1740465464650018207,-0.089,,,,0.1448244094
1740465464657721633,-0.087,,,,0.145594752
1740465464665425059,-0.084,,,,0.1463650946
1740465464673128485,-0.084,,,,0.1471354372
1740465464680831911,-0.087,,,,0.1479057798
1740465464688535337,-0.089,,,,0.1486761224
1740465464696238763,-0.084,,,,0.149446465
1740465464703942189,-0.075,,,,0.1502168076
1740465464711645615,-0.067,,,,0.1509871502
1740465464719349041,-0.06,,,,0.1517574928
1740465464727052467,-0.06,,,,0.1525278354
1740465464734755893,-0.075,,,,0.153298178
1740465464742459319,-0.092,,,,0.1540685206
1740465464750162745,-0.092,,,,0.1548388632
1740465464757866171,-0.087,,,,0.1556092058
1740465464765569597,-0.084,,,,0.1563795484
1740465464773273023,-0.087,,,,0.157149891
1740465464780976449,-0.087,,,,0.1579202336
1740465464788679875,-0.087,,,,0.1586905762
1740465464796383301,-0.087,,,,0.1594609188
1740465464804086727,-0.087,,,,0.1602312614
1740465464811790153,-0.084,,,,0.161001604
1740465464819493579,-0.084,,,,0.1617719466
1740465464827197005,-0.084,,,,0.1625422892
1740465464834900431,-0.089,,,,0.1633126318
1740465464842603857,-0.101,,,,0.1640829744
1740465464850307283,-0.084,,,,0.164853317
1740465464858010709,0.046,,,,0.1656236596
1740465464865714135,0.259,,,,0.1663940022
1740465464873417561,0.438,,,,0.1671643448
1740465464881120987,0.641,,,,0.1679346874
1740465464888824416,0.682,,,,0.1687050303
1740465464896527841,0.154,,,,0.1694753728
1740465464904231266,-0.452,,,,0.1702457153
1740465464911934691,-0.394,,,,0.1710160578
1740465464919638116,-0.106,,,,0.1717864003
1740465464927341541,-0.133,,,,0.1725567428
1740465464935044966,-0.196,,,,0.1733270853
1740465464942748391,-0.135,,,,0.1740974278
1740465464950451816,-0.123,,,,0.1748677703
1740465464958155241,-0.14,,,,0.1756381128
1740465464965858666,-0.116,,,,0.1764084553
1740465464973562091,-0.099,,,,0.1771787978
1740465464981265516,-0.101,,,,0.1779491403
1740465464988968941,-0.092,,,,0.1787194828
1740465464996672366,-0.079,,,,0.1794898253
1740465465004375791,-0.077,,,,0.1802601678
1740465465012079216,-0.072,,,,0.1810305103
1740465465019782641,-0.065,,,,0.1818008528
1740465465027486066,-0.06,,,,0.1825711953
1740465465035189491,-0.055,,,,0.1833415378
1740465465042892916,-0.046,,,,0.1841118803
1740465465050596341,-0.041,,,,0.1848822228
1740465465058299766,-0.033,,,,0.1856525653
1740465465066003191,-0.026,,,,0.1864229078
1740465465073706616,-0.019,,,,0.1871932503
1740465465081410041,-0.009,,,,0.1879635928
1740465465089113466,0.0,,,,0.1887339353
1740465465096816891,0.009,,,,0.1895042778
1740465465104520316,0.019,,,,0.1902746203
1740465465112223741,0.029,,,,0.1910449628
1740465465119927166,0.038,,,,0.1918153053
1740465465127630591,0.046,,,,0.1925856478
1740465465135334016,0.05,,,,0.1933559903
1740465465143037441,0.053,,,,0.1941263328
1740465465150740866,0.053,,,,0.1948966753
1740465465158444291,0.05,,,,0.1956670178
1740465465166147716,0.046,,,,0.1964373603
1740465465173851141,0.036,,,,0.1972077028
1740465465181554566,0.016,,,,0.1979780453
1740465465189257991,-0.012,,,,0.1987483878
1740465465196961416,-0.048,,,,0.1995187303
1740465465204664841,-0.087,,,,0.2002890728
1740465465212368266,-0.123,,,,0.2010594153
1740465465220071691,-0.15,,,,0.2018297578
1740465465227775116,-0.169,,,,0.2026001003
1740465465235478541,-0.176,,,,0.2033704428
1740465465243181966,-0.176,,,,0.2041407853
1740465465250885391,-0.174,,,,0.2049111278
1740465465258588816,-0.169,,,,0.2056814703
1740465465266292241,-0.159,,,,0.2064518128
1740465465273995666,-0.152,,,,0.2072221553
1740465465281699091,-0.147,,,,0.2079924978
1740465465289402516,-0.142,,,,0.2087628403
1740465465297105941,-0.133,,,,0.2095331828
1740465465304809366,-0.125,,,,0.2103035253
1740465465312512791,-0.121,,,,0.2110738678
1740465465320216216,-0.118,,,,0.2118442103
1740465465327919641,-0.113,,,,0.2126145528
1740465465335623066,-0.108,,,,0.2133848953
1740465465343326491,-0.106,,,,0.2141552378
1740465465351029916,-0.104,,,,0.2149255803
1740465465358733341,-0.101,,,,0.2156959228
1740465465366436766,-0.101,,,,0.2164662653
1740465465374140191,-0.101,,,,0.2172366078
1740465465381843616,-0.099,,,,0.2180069503
1740465465389547041,-0.099,,,,0.2187772928
1740465465397250466,-0.101,,,,0.2195476353
1740465465404953891,-0.104,,,,0.2203179778
1740465465412657316,-0.101,,,,0.2210883203
1740465465420360741,-0.104,,,,0.2218586628
1740465465428064166,-0.108,,,,0.2226290053
1740465465435767591,-0.106,,,,0.2233993478
1740465465443471016,-0.106,,,,0.2241696903
1740465465451174513,-0.106,59.0,941.0,,0.22494004
1740465465458878078,-0.106,,,,0.2257103965
1740465465466581643,-0.108,,,,0.226480753
1740465465474285208,-0.108,,,,0.2272511095
1740465465481988773,-0.106,,,,0.228021466
1740465465489692338,-0.106,,,,0.2287918225
1740465465497395903,-0.106,,,,0.229562179
1740465465505099468,-0.106,,,,0.2303325355
1740465465512803033,-0.104,,,,0.231102892
1740465465520506598,-0.104,,,,0.2318732485
1740465465528210163,-0.104,,,,0.232643605
1740465465535913728,-0.101,,,,0.2334139615
1740465465543617293,-0.101,,,,0.234184318
1740465465551320858,-0.101,,,,0.2349546745
1740465465559024423,-0.101,,,,0.235725031
1740465465566727988,-0.101,,,,0.2364953875
1740465465574431553,-0.099,,,,0.237265744
1740465465582135118,-0.101,,,,0.2380361005
1740465465589838683,-0.101,,,,0.238806457
1740465465597542248,-0.099,,,,0.2395768135
1740465465605245813,-0.099,,,,0.24034717
1740465465612949378,-0.099,,,,0.2411175265
1740465465620652943,-0.099,,,,0.241887883
1740465465628356508,-0.099,,,,0.2426582395
1740465465636060073,-0.101,,,,0.243428596
1740465465643763638,-0.101,,,,0.2441989525
1740465465651467203,-0.101,,,,0.244969309
1740465465659170768,-0.101,,,,0.2457396655
1740465465666874333,-0.099,,,,0.246510022
1740465465674577898,-0.099,,,,0.2472803785
1740465465682281463,-0.096,,,,0.248050735
1740465465689985028,-0.099,,,,0.2488210915
1740465465697688593,-0.101,,,,0.249591448
1740465465705392158,-0.099,,,,0.2503618045
1740465465713095723,-0.092,,,,0.251132161
1740465465720799288,-0.082,,,,0.2519025175
1740465465728502853,-0.072,,,,0.252672874
1740465465736206418,-0.075,,,,0.2534432305
1740465465743909983,-0.087,,,,0.254213587
1740465465751613548,-0.104,,,,0.2549839435
1740465465759317113,-0.108,,,,0.2557543
1740465465767020678,-0.101,,,,0.2565246565
1740465465774724243,-0.101,,,,0.257295013
1740465465782427808,-0.104,,,,0.2580653695
1740465465790131373,-0.101,,,,0.258835726
1740465465797834938,-0.101,,,,0.2596060825
1740465465805538503,-0.106,,,,0.260376439
1740465465813242068,-0.106,,,,0.2611467955
1740465465820945633,-0.101,,,,0.261917152
1740465465828649198,-0.099,,,,0.2626875085
1740465465836352763,-0.101,,,,0.263457865
1740465465844056328,-0.106,,,,0.2642282215
1740465465851759893,-0.118,,,,0.264998578
1740465465859463458,-0.113,,,,0.2657689345
1740465465867167023,-0.012,,,,0.266539291
1740465465874870588,0.196,,,,0.2673096475
1740465465882574153,0.394,,,,0.268080004
1740465465890277718,0.581,,,,0.2688503605
1740465465897981283,0.658,,,,0.269620717
1740465465905684848,0.222,,,,0.2703910735
1740465465913388413,-0.423,,,,0.27116143
1740465465921091978,-0.464,,,,0.2719317865
1740465465928795543,-0.159,,,,0.272702143
1740465465936499108,-0.133,,,,0.2734724995
1740465465944202673,-0.208,,,,0.274242856
1740465465951906238,-0.159,,,,0.2750132125
1740465465959609803,-0.135,,,,0.275783569
1740465465967313368,-0.154,,,,0.2765539255
1740465465975016933,-0.138,,,,0.277324282
1740465465982720498,-0.118,,,,0.2780946385
1740465465990424063,-0.118,,,,0.278864995
1740465465998127628,-0.113,,,,0.2796353515
1740465466005831193,-0.101,,,,0.280405708
1740465466013534788,-0.094,,,,0.2811760675
1740465466021238074,-0.089,,,,0.2819463961
1740465466028941360,-0.084,,,,0.2827167247
1740465466036644646,-0.077,,,,0.2834870533
1740465466044347932,-0.07,,,,0.2842573819
1740465466052051218,-0.065,,,,0.2850277105
1740465466059754504,-0.06,,,,0.2857980391
1740465466067457790,-0.053,,,,0.2865683677
1740465466075161076,-0.046,,,,0.2873386963
1740465466082864362,-0.036,,,,0.2881090249
1740465466090567648,-0.026,,,,0.2888793535
1740465466098270934,-0.016,,,,0.2896496821
1740465466105974220,-0.007,,,,0.2904200107
1740465466113677506,0.0,,,,0.2911903393
1740465466121380792,0.004,,,,0.2919606679
1740465466129084078,0.019,,,,0.2927309965
1740465466136787364,0.031,,,,0.2935013251
1740465466144490650,0.033,,,,0.2942716537
1740465466152193936,0.033,,,,0.2950419823
1740465466159897222,0.033,,,,0.2958123109
1740465466167600508,0.036,,,,0.2965826395
1740465466175303794,0.031,,,,0.2973529681
1740465466183007080,0.019,,,,0.2981232967
1740465466190710366,0.002,,,,0.2988936253
1740465466198413652,-0.024,,,,0.2996639539
1740465466206116938,-0.065,,,,0.3004342825
1740465466213820224,-0.106,,,,0.3012046111
1740465466221523510,-0.142,,,,0.3019749397
1740465466229226796,-0.171,,,,0.3027452683
1740465466236930082,-0.193,,,,0.3035155969
1740465466244633368,-0.203,,,,0.3042859255
1740465466252336654,-0.205,,,,0.3050562541
1740465466260039940,-0.203,,,,0.3058265827
1740465466267743226,-0.2,,,,0.3065969113
1740465466275446512,-0.193,,,,0.3073672399
1740465466283149798,-0.184,,,,0.3081375685
1740465466290853084,-0.176,,,,0.3089078971
1740465466298556370,-0.169,,,,0.3096782257
1740465466306259656,-0.162,,,,0.3104485543
1740465466313962942,-0.154,,,,0.3112188829
1740465466321666228,-0.147,,,,0.3119892115
1740465466329369514,-0.14,,,,0.3127595401
1740465466337072800,-0.135,,,,0.3135298687
1740465466344776086,-0.133,,,,0.3143001973
1740465466352479372,-0.128,,,,0.3150705259
1740465466360182658,-0.125,,,,0.3158408545
1740465466367885944,-0.125,,,,0.3166111831
1740465466375589230,-0.123,,,,0.3173815117
1740465466383292516,-0.125,,,,0.3181518403
1740465466390995802,-0.128,,,,0.3189221689
1740465466398699088,-0.13,,,,0.3196924975
1740465466406402374,-0.13,,,,0.3204628261
1740465466414105660,-0.133,,,,0.3212331547
1740465466421808946,-0.133,,,,0.3220034833
1740465466429512232,-0.135,,,,0.3227738119
1740465466437215518,-0.138,,,,0.3235441405
1740465466444918804,-0.138,,,,0.3243144691
1740465466452622090,-0.138,,,,0.3250847977
1740465466460325376,-0.138,,,,0.3258551263
1740465466468028662,-0.138,,,,0.3266254549
1740465466475731948,-0.138,,,,0.3273957835
1740465466483435234,-0.138,,,,0.3281661121
1740465466491138520,-0.138,,,,0.3289364407
1740465466498841806,-0.138,,,,0.3297067693
1740465466506545092,-0.138,,,,0.3304770979
1740465466514248378,-0.135,,,,0.3312474265
1740465466521951664,-0.135,,,,0.3320177551
1740465466529654950,-0.133,,,,0.3327880837
1740465466537358236,-0.133,,,,0.3335584123
1740465466545061522,-0.135,,,,0.3343287409
1740465466552764808,-0.135,,,,0.3350990695
1740465466560468094,-0.13,,,,0.3358693981
1740465466568171380,-0.13,,,,0.3366397267
1740465466575874715,-0.13,60.0,969.0,X,0.3374100602
1740465466583578001,-0.13,,,,0.3381803888
1740465466591281287,-0.13,,,,0.3389507174
1740465466598984573,-0.128,,,,0.339721046
1740465466606687859,-0.125,,,,0.3404913746
1740465466614391145,-0.125,,,,0.3412617032
1740465466622094431,-0.128,,,,0.3420320318
1740465466629797717,-0.125,,,,0.3428023604
1740465466637501003,-0.123,,,,0.343572689
1740465466645204289,-0.123,,,,0.3443430176
1740465466652907575,-0.123,,,,0.3451133462
1740465466660610861,-0.121,,,,0.3458836748
1740465466668314147,-0.118,,,,0.3466540034
1740465466676017433,-0.121,,,,0.347424332
1740465466683720719,-0.121,,,,0.3481946606
1740465466691424005,-0.111,,,,0.3489649892
1740465466699127291,-0.099,,,,0.3497353178
1740465466706830577,-0.096,,,,0.3505056464
1740465466714533863,-0.099,,,,0.351275975
1740465466722237149,-0.108,,,,0.3520463036
1740465466729940435,-0.123,,,,0.3528166322
1740465466737643721,-0.128,,,,0.3535869608
1740465466745347007,-0.121,,,,0.3543572894
1740465466753050293,-0.121,,,,0.355127618
1740465466760753579,-0.125,,,,0.3558979466
1740465466768456865,-0.123,,,,0.3566682752
1740465466776160151,-0.121,,,,0.3574386038
1740465466783863437,-0.121,,,,0.3582089324
1740465466791566723,-0.118,,,,0.358979261
1740465466799270009,-0.116,,,,0.3597495896
1740465466806973295,-0.118,,,,0.3605199182
1740465466814676581,-0.121,,,,0.3612902468
1740465466822379867,-0.121,,,,0.3620605754
1740465466830083153,-0.13,,,,0.362830904
1740465466837786439,-0.125,,,,0.3636012326
1740465466845489725,-0.016,,,,0.3643715612
1740465466853193011,0.227,,,,0.3651418898
1740465466860896297,0.457,,,,0.3659122184
1740465466868599583,0.639,,,,0.366682547
1740465466876302869,0.6900000000000001,,,,0.3674528756
1740465466884006155,0.213,,,,0.3682232042
1740465466891709441,-0.493,,,,0.3689935328
1740465466899412727,-0.535,,,,0.3697638614
1740465466907116013,-0.186,,,,0.37053419
1740465466914819299,-0.152,,,,0.3713045186
1740465466922522585,-0.227,,,,0.3720748472
1740465466930225871,-0.167,,,,0.3728451758
1740465466937929157,-0.14,,,,0.3736155044
1740465466945632443,-0.164,,,,0.374385833
1740465466953335729,-0.142,,,,0.3751561616
1740465466961039015,-0.121,,,,0.3759264902
1740465466968742301,-0.123,,,,0.3766968188
1740465466976445587,-0.116,,,,0.3774671474
1740465466984148873,-0.104,,,,0.378237476
1740465466991852159,-0.096,,,,0.3790078046
1740465466999555445,-0.092,,,,0.3797781332
1740465467007258731,-0.082,,,,0.3805484618
1740465467014962017,-0.075,,,,0.3813187904
1740465467022665303,-0.07,,,,0.382089119
1740465467030368589,-0.062,,,,0.3828594476
1740465467038071875,-0.055,,,,0.3836297762
1740465467045775161,-0.048,,,,0.3844001048
1740465467053478447,-0.041,,,,0.3851704334
1740465467061181733,-0.033,,,,0.385940762
1740465467068885019,-0.021,,,,0.3867110906
1740465467076588305,-0.012,,,,0.3874814192
1740465467084291591,0.0,,,,0.3882517478
1740465467091994877,0.012,,,,0.3890220764
1740465467099698163,0.024,,,,0.389792405
1740465467107401449,0.038,,,,0.3905627336
1740465467115104735,0.048,,,,0.3913330622
1740465467122808021,0.053,,,,0.3921033908
1740465467130511307,0.055,,,,0.3928737194
1740465467138214642,0.053,,,,0.3936440529
1740465467145918207,0.053,,,,0.3944144094
1740465467153621772,0.05,,,,0.3951847659
1740465467161325337,0.038,,,,0.3959551224
1740465467169028902,0.016,,,,0.3967254789
1740465467176732467,-0.016,,,,0.3974958354
1740465467184436032,-0.06,,,,0.3982661919
1740465467192139597,-0.104,,,,0.3990365484
1740465467199843162,-0.14,,,,0.3998069049
1740465467207546727,-0.169,,,,0.4005772614
1740465467215250292,-0.191,,,,0.4013476179
1740465467222953857,-0.2,,,,0.4021179744
1740465467230657422,-0.203,,,,0.4028883309
1740465467238360987,-0.2,,,,0.4036586874
1740465467246064552,-0.193,,,,0.4044290439
1740465467253768117,-0.184,,,,0.4051994004
1740465467261471682,-0.176,,,,0.4059697569
1740465467269175247,-0.167,,,,0.4067401134
1740465467276878812,-0.154,,,,0.4075104699
1740465467284582377,-0.147,,,,0.4082808264
1740465467292285942,-0.138,,,,0.4090511829
1740465467299989507,-0.125,,,,0.4098215394
1740465467307693072,-0.121,,,,0.4105918959
1740465467315396637,-0.116,,,,0.4113622524
1740465467323100202,-0.111,,,,0.4121326089
1740465467330803767,-0.106,,,,0.4129029654
1740465467338507332,-0.104,,,,0.4136733219
1740465467346210897,-0.101,,,,0.4144436784
1740465467353914462,-0.099,,,,0.4152140349
1740465467361618027,-0.099,,,,0.4159843914
1740465467369321592,-0.099,,,,0.4167547479
1740465467377025157,-0.099,,,,0.4175251044
1740465467384728722,-0.101,,,,0.4182954609
1740465467392432287,-0.104,,,,0.4190658174
1740465467400135852,-0.106,,,,0.4198361739
1740465467407839417,-0.106,,,,0.4206065304
1740465467415542982,-0.108,,,,0.4213768869
1740465467423246547,-0.106,,,,0.4221472434
1740465467430950112,-0.106,,,,0.4229175999
1740465467438653677,-0.106,,,,0.4236879564
1740465467446357242,-0.106,,,,0.4244583129
1740465467454060807,-0.106,,,,0.4252286694
1740465467461764372,-0.104,,,,0.4259990259
1740465467469467937,-0.104,,,,0.4267693824
1740465467477171502,-0.101,,,,0.4275397389
1740465467484875067,-0.101,,,,0.4283100954
1740465467492578632,-0.099,,,,0.4290804519
1740465467500282197,-0.101,,,,0.4298508084
1740465467507985762,-0.099,,,,0.4306211649
1740465467515689327,-0.096,,,,0.4313915214
1740465467523392892,-0.094,,,,0.4321618779
1740465467531096457,-0.094,,,,0.4329322344
1740465467538800022,-0.094,,,,0.4337025909
1740465467546503587,-0.094,,,,0.4344729474
1740465467554207152,-0.094,,,,0.4352433039
1740465467561910717,-0.092,,,,0.4360136604
1740465467569614282,-0.092,,,,0.4367840169
1740465467577317847,-0.092,,,,0.4375543734
1740465467585021412,-0.092,,,,0.4383247299
1740465467592724977,-0.092,,,,0.4390950864
1740465467600428542,-0.089,,,,0.4398654429
1740465467608132107,-0.089,,,,0.4406357994
1740465467615835672,-0.087,,,,0.4414061559
1740465467623539237,-0.087,,,,0.4421765124
1740465467631242802,-0.084,,,,0.4429468689
1740465467638946367,-0.082,,,,0.4437172254
1740465467646649932,-0.082,,,,0.4444875819
1740465467654353497,-0.087,,,,0.4452579384
1740465467662057062,-0.087,,,,0.4460282949
1740465467669760627,-0.077,,,,0.4467986514
1740465467677464192,-0.07,,,,0.4475690079
1740465467685167757,-0.062,,,,0.4483393644
1740465467692871322,-0.058,,,,0.4491097209
1740465467700574913,-0.065,60.0,1001.0,,0.44988008
1740465467708278129,-0.079,,,,0.4506504016
1740465467715981345,-0.087,,,,0.4514207232
1740465467723684561,-0.087,,,,0.4521910448
1740465467731387777,-0.084,,,,0.4529613664
1740465467739090993,-0.084,,,,0.453731688
1740465467746794209,-0.082,,,,0.4545020096
1740465467754497425,-0.082,,,,0.4552723312
1740465467762200641,-0.082,,,,0.4560426528
1740465467769903857,-0.079,,,,0.4568129744
1740465467777607073,-0.077,,,,0.457583296
1740465467785310289,-0.077,,,,0.4583536176
1740465467793013505,-0.077,,,,0.4591239392
1740465467800716721,-0.077,,,,0.4598942608
1740465467808419937,-0.089,,,,0.4606645824
1740465467816123153,-0.101,,,,0.461434904
1740465467823826369,-0.029,,,,0.4622052256
1740465467831529585,0.174,,,,0.4629755472
1740465467839232801,0.399,,,,0.4637458688
1740465467846936017,0.595,,,,0.4645161904
1740465467854639233,0.779,,,,0.465286512
1740465467862342449,0.518,,,,0.4660568336
1740465467870045665,-0.232,,,,0.4668271552
1740465467877748881,-0.537,,,,0.4675974768
1740465467885452097,-0.222,,,,0.4683677984
1740465467893155313,-0.082,,,,0.46913812
1740465467900858529,-0.186,,,,0.4699084416
1740465467908561745,-0.162,,,,0.4706787632
1740465467916264961,-0.106,,,,0.4714490848
1740465467923968177,-0.128,,,,0.4722194064
1740465467931671393,-0.125,,,,0.472989728
1740465467939374609,-0.094,,,,0.4737600496
1740465467947077825,-0.092,,,,0.4745303712
1740465467954781041,-0.092,,,,0.4753006928
1740465467962484257,-0.079,,,,0.4760710144
1740465467970187473,-0.07,,,,0.476841336
1740465467977890689,-0.067,,,,0.4776116576
1740465467985593905,-0.062,,,,0.4783819792
1740465467993297121,-0.053,,,,0.4791523008
1740465468001000337,-0.048,,,,0.4799226224
1740465468008703553,-0.041,,,,0.480692944
1740465468016406769,-0.033,,,,0.4814632656
1740465468024109985,-0.031,,,,0.4822335872
1740465468031813201,-0.024,,,,0.4830039088
1740465468039516417,-0.014,,,,0.4837742304
1740465468047219633,-0.007,,,,0.484544552
1740465468054922849,0.002,,,,0.4853148736
1740465468062626065,0.012,,,,0.4860851952
1740465468070329281,0.024,,,,0.4868555168
1740465468078032497,0.033,,,,0.4876258384
1740465468085735713,0.046,,,,0.48839616
1740465468093438929,0.058,,,,0.4891664816
1740465468101142145,0.065,,,,0.4899368032
1740465468108845361,0.07,,,,0.4907071248
1740465468116548577,0.07,,,,0.4914774464
1740465468124251793,0.067,,,,0.492247768
1740465468131955009,0.065,,,,0.4930180896
1740465468139658225,0.06,,,,0.4937884112
1740465468147361441,0.043,,,,0.4945587328
1740465468155064657,0.014,,,,0.4953290544
1740465468162767873,-0.024,,,,0.496099376
1740465468170471089,-0.062,,,,0.4968696976
1740465468178174305,-0.101,,,,0.4976400192
1740465468185877521,-0.133,,,,0.4984103408
1740465468193580737,-0.154,,,,0.4991806624
1740465468201283953,-0.167,,,,0.499950984
1740465468208987169,-0.174,,,,0.5007213056
1740465468216690385,-0.171,,,,0.5014916272
1740465468224393601,-0.167,,,,0.5022619488
1740465468232096817,-0.159,,,,0.5030322704
1740465468239800033,-0.152,,,,0.503802592
1740465468247503249,-0.145,,,,0.5045729136
1740465468255206465,-0.138,,,,0.5053432352
1740465468262909753,-0.13,60.0,1010.0,,0.506113564
1740465468270613248,-0.123,,,,0.5068839135
1740465468278316743,-0.113,,,,0.507654263
1740465468286020238,-0.108,,,,0.5084246125
1740465468293723733,-0.104,,,,0.509194962
1740465468301427228,-0.099,,,,0.5099653115
1740465468309130723,-0.096,,,,0.510735661
1740465468316834218,-0.094,,,,0.5115060105
1740465468324537713,-0.092,,,,0.51227636
1740465468332241208,-0.092,,,,0.5130467095
1740465468339944703,-0.092,,,,0.513817059
1740465468347648198,-0.089,,,,0.5145874085
1740465468355351693,-0.089,,,,0.515357758
1740465468363055188,-0.089,,,,0.5161281075
1740465468370758683,-0.092,,,,0.516898457
1740465468378462178,-0.094,,,,0.5176688065
1740465468386165673,-0.094,,,,0.518439156
1740465468393869168,-0.096,,,,0.5192095055
1740465468401572663,-0.096,,,,0.519979855
1740465468409276158,-0.096,,,,0.5207502045
1740465468416979653,-0.096,,,,0.521520554
1740465468424683148,-0.099,,,,0.5222909035
1740465468432386643,-0.099,,,,0.523061253
1740465468440090138,-0.096,,,,0.5238316025
1740465468447793633,-0.096,,,,0.524601952
1740465468455497128,-0.096,,,,0.5253723015
1740465468463200623,-0.096,,,,0.526142651
1740465468470904118,-0.096,,,,0.5269130005
1740465468478607613,-0.094,,,,0.52768335
1740465468486311108,-0.094,,,,0.5284536995
1740465468494014603,-0.092,,,,0.529224049
1740465468501718098,-0.089,,,,0.5299943985
1740465468509421593,-0.089,,,,0.530764748
1740465468517125088,-0.089,,,,0.5315350975
1740465468524828583,-0.092,,,,0.532305447
1740465468532532078,-0.089,,,,0.5330757965
1740465468540235573,-0.087,,,,0.533846146
1740465468547939068,-0.087,,,,0.5346164955
1740465468555642563,-0.089,,,,0.535386845
1740465468563346058,-0.089,,,,0.5361571945
1740465468571049553,-0.087,,,,0.536927544
1740465468578753048,-0.089,,,,0.5376978935
1740465468586456543,-0.089,,,,0.538468243
1740465468594160038,-0.087,,,,0.5392385925
1740465468601863533,-0.087,,,,0.540008942
1740465468609567028,-0.087,,,,0.5407792915
1740465468617270523,-0.087,,,,0.541549641
1740465468624974018,-0.084,,,,0.5423199905
1740465468632677513,-0.084,,,,0.54309034
1740465468640381008,-0.082,,,,0.5438606895
1740465468648084503,-0.084,,,,0.544631039
1740465468655787998,-0.084,,,,0.5454013885
1740465468663491493,-0.082,,,,0.546171738
1740465468671194988,-0.079,,,,0.5469420875
1740465468678898483,-0.079,,,,0.547712437
1740465468686601978,-0.082,,,,0.5484827865
1740465468694305473,-0.084,,,,0.549253136
1740465468702008968,-0.079,,,,0.5500234855
1740465468709712463,-0.072,,,,0.550793835
1740465468717415958,-0.065,,,,0.5515641845
1740465468725119453,-0.058,,,,0.552334534
1740465468732822948,-0.06,,,,0.5531048835
1740465468740526443,-0.075,,,,0.553875233
1740465468748229938,-0.087,,,,0.5546455825
1740465468755933433,-0.084,,,,0.555415932
1740465468763636928,-0.082,,,,0.5561862815
1740465468771340423,-0.082,,,,0.556956631
1740465468779043918,-0.082,,,,0.5577269805
1740465468786747413,-0.082,,,,0.55849733
1740465468794450908,-0.084,,,,0.5592676795
1740465468802154403,-0.084,,,,0.560038029
1740465468809857898,-0.082,,,,0.5608083785
1740465468817561393,-0.082,,,,0.561578728
1740465468825264941,-0.079,,,,0.5623490828
1740465468832968227,-0.079,,,,0.5631194114
1740465468840671513,-0.087,,,,0.56388974
1740465468848374799,-0.099,,,,0.5646600686
1740465468856078085,-0.058,,,,0.5654303972
1740465468863781371,0.106,,,,0.5662007258
1740465468871484657,0.314,,,,0.5669710544
1740465468879187943,0.491,,,,0.567741383
1740465468886891229,0.682,,,,0.5685117116
1740465468894594515,0.578,,,,0.5692820402
1740465468902297801,-0.055,,,,0.5700523688
1740465468910001087,-0.491,,,,0.5708226974
1740465468917704373,-0.285,,,,0.571593026
1740465468925407659,-0.079,,,,0.5723633546
1740465468933110945,-0.152,,,,0.5731336832
1740465468940814231,-0.174,,,,0.5739040118
1740465468948517517,-0.116,,,,0.5746743404
1740465468956220803,-0.123,,,,0.575444669
1740465468963924089,-0.13,,,,0.5762149976
1740465468971627375,-0.104,,,,0.5769853262
1740465468979330661,-0.096,,,,0.5777556548
1740465468987033947,-0.094,,,,0.5785259834
1740465468994737233,-0.084,,,,0.579296312
1740465469002440519,-0.079,,,,0.5800666406
1740465469010143805,-0.075,,,,0.5808369692
1740465469017847091,-0.067,,,,0.5816072978
1740465469025550377,-0.062,,,,0.5823776264
1740465469033253663,-0.058,,,,0.583147955
1740465469040956949,-0.053,,,,0.5839182836
1740465469048660235,-0.046,,,,0.5846886122
1740465469056363521,-0.041,,,,0.5854589408
1740465469064066807,-0.036,,,,0.5862292694
1740465469071770093,-0.026,,,,0.586999598
1740465469079473379,-0.019,,,,0.5877699266
1740465469087176665,-0.012,,,,0.5885402552
1740465469094879951,-0.004,,,,0.5893105838
1740465469102583237,0.004,,,,0.5900809124
1740465469110286523,0.016,,,,0.590851241
1740465469117989809,0.029,,,,0.5916215696
1740465469125693095,0.038,,,,0.5923918982
1740465469133396381,0.046,,,,0.5931622268
1740465469141099667,0.048,,,,0.5939325554
1740465469148802953,0.05,,,,0.594702884
1740465469156506239,0.05,,,,0.5954732126
1740465469164209525,0.046,,,,0.5962435412
1740465469171912811,0.043,,,,0.5970138698
1740465469179616097,0.033,,,,0.5977841984
1740465469187319383,0.014,,,,0.598554527
1740465469195022669,-0.014,,,,0.5993248556
1740465469202725955,-0.05,,,,0.6000951842
1740465469210429241,-0.087,,,,0.6008655128
1740465469218132527,-0.118,,,,0.6016358414
1740465469225835813,-0.145,,,,0.60240617
1740465469233539099,-0.159,,,,0.6031764986
1740465469241242385,-0.169,,,,0.6039468272
1740465469248945671,-0.169,,,,0.6047171558
1740465469256648957,-0.167,,,,0.6054874844
1740465469264352243,-0.159,,,,0.606257813
1740465469272055529,-0.154,,,,0.6070281416
1740465469279758815,-0.145,,,,0.6077984702
1740465469287462101,-0.138,,,,0.6085687988
1740465469295165387,-0.135,,,,0.6093391274
1740465469302868673,-0.128,,,,0.610109456
1740465469310571959,-0.121,,,,0.6108797846
1740465469318275245,-0.113,,,,0.6116501132
1740465469325978531,-0.111,,,,0.6124204418
1740465469333681817,-0.106,,,,0.6131907704
1740465469341385103,-0.104,,,,0.613961099
1740465469349088389,-0.101,,,,0.6147314276
1740465469356791675,-0.099,,,,0.6155017562
1740465469364494961,-0.099,,,,0.6162720848
1740465469372198247,-0.096,,,,0.6170424134
1740465469379901533,-0.096,,,,0.617812742
1740465469387604868,-0.096,60.0,979.0,,0.6185830755
1740465469395308154,-0.101,,,,0.6193534041
1740465469403011440,-0.101,,,,0.6201237327
1740465469410714726,-0.101,,,,0.6208940613
1740465469418418012,-0.101,,,,0.6216643899
1740465469426121298,-0.104,,,,0.6224347185
1740465469433824584,-0.106,,,,0.6232050471
1740465469441527870,-0.106,,,,0.6239753757
1740465469449231156,-0.108,,,,0.6247457043
1740465469456934442,-0.106,,,,0.6255160329
1740465469464637728,-0.106,,,,0.6262863615
1740465469472341014,-0.106,,,,0.6270566901
1740465469480044300,-0.104,,,,0.6278270187
1740465469487747586,-0.101,,,,0.6285973473
1740465469495450872,-0.106,,,,0.6293676759
1740465469503154158,-0.106,,,,0.6301380045
1740465469510857444,-0.101,,,,0.6309083331
1740465469518560730,-0.101,,,,0.6316786617
1740465469526264016,-0.101,,,,0.6324489903
1740465469533967302,-0.101,,,,0.6332193189
1740465469541670588,-0.099,,,,0.6339896475
1740465469549373874,-0.096,,,,0.6347599761
1740465469557077160,-0.096,,,,0.6355303047
1740465469564780446,-0.099,,,,0.6363006333
1740465469572483732,-0.096,,,,0.6370709619
1740465469580187018,-0.099,,,,0.6378412905
1740465469587890304,-0.099,,,,0.6386116191
1740465469595593590,-0.099,,,,0.6393819477
1740465469603296876,-0.099,,,,0.6401522763
1740465469611000162,-0.099,,,,0.6409226049
1740465469618703448,-0.096,,,,0.6416929335
1740465469626406734,-0.094,,,,0.6424632621
1740465469634110020,-0.094,,,,0.6432335907
1740465469641813306,-0.092,,,,0.6440039193
1740465469649516592,-0.092,,,,0.6447742479
1740465469657219878,-0.094,,,,0.6455445765
1740465469664923164,-0.094,,,,0.6463149051
1740465469672626450,-0.094,,,,0.6470852337
1740465469680329736,-0.094,,,,0.6478555623
1740465469688033022,-0.094,,,,0.6486258909
1740465469695736308,-0.094,,,,0.6493962195
1740465469703439594,-0.094,,,,0.6501665481
1740465469711142880,-0.096,,,,0.6509368767
1740465469718846166,-0.099,,,,0.6517072053
1740465469726549452,-0.094,,,,0.6524775339
1740465469734252738,-0.084,,,,0.6532478625
1740465469741956024,-0.079,,,,0.6540181911
1740465469749659310,-0.072,,,,0.6547885197
1740465469757362596,-0.072,,,,0.6555588483
1740465469765065882,-0.087,,,,0.6563291769
1740465469772769168,-0.104,,,,0.6570995055
1740465469780472454,-0.104,,,,0.6578698341
1740465469788175740,-0.096,,,,0.6586401627
1740465469795879026,-0.099,,,,0.6594104913
1740465469803582312,-0.101,,,,0.6601808199
1740465469811285598,-0.099,,,,0.6609511485
1740465469818988884,-0.099,,,,0.6617214771
1740465469826692170,-0.099,,,,0.6624918057
1740465469834395456,-0.096,,,,0.6632621343
1740465469842098742,-0.096,,,,0.6640324629
1740465469849802028,-0.099,,,,0.6648027915
1740465469857505314,-0.096,,,,0.6655731201
1740465469865208600,-0.099,,,,0.6663434487
1740465469872911886,-0.111,,,,0.6671137773
1740465469880615172,-0.084,,,,0.6678841059
1740465469888318458,0.062,,,,0.6686544345
1740465469896021744,0.285,,,,0.6694247631
1740465469903725030,0.469,,,,0.6701950917
1740465469911428316,0.648,,,,0.6709654203
1740465469919131602,0.583,,,,0.6717357489
1740465469926834888,-0.016,,,,0.6725060775
1740465469934538174,-0.513,,,,0.6732764061
1740465469942241460,-0.351,,,,0.6740467347
1740465469949944791,-0.111,,,,0.6748170678
1740465469957648426,-0.164,,,,0.6755874313
1740465469965352061,-0.191,,,,0.6763577948
1740465469973055696,-0.133,,,,0.6771281583
1740465469980759331,-0.138,,,,0.6778985218
1740465469988462966,-0.15,,,,0.6786688853
1740465469996166601,-0.121,,,,0.6794392488
1740465470003870236,-0.108,,,,0.6802096123
1740465470011573871,-0.113,,,,0.6809799758
1740465470019277506,-0.104,,,,0.6817503393
1740465470026981141,-0.094,,,,0.6825207028
1740465470034684776,-0.089,,,,0.6832910663
1740465470042388411,-0.082,,,,0.6840614298
1740465470050092046,-0.075,,,,0.6848317933
1740465470057795681,-0.07,,,,0.6856021568
1740465470065499316,-0.065,,,,0.6863725203
1740465470073202951,-0.06,,,,0.6871428838
1740465470080906586,-0.055,,,,0.6879132473
1740465470088610221,-0.048,,,,0.6886836108
1740465470096313856,-0.041,,,,0.6894539743
1740465470104017491,-0.036,,,,0.6902243378
1740465470111721126,-0.029,,,,0.6909947013
1740465470119424761,-0.019,,,,0.6917650648
1740465470127128396,-0.007,,,,0.6925354283
1740465470134832031,0.002,,,,0.6933057918
1740465470142535666,0.009,,,,0.6940761553
1740465470150239301,0.021,,,,0.6948465188
1740465470157942936,0.031,,,,0.6956168823
1740465470165646571,0.033,,,,0.6963872458
1740465470173350206,0.033,,,,0.6971576093
1740465470181053841,0.038,,,,0.6979279728
1740465470188757476,0.036,,,,0.6986983363
1740465470196461111,0.026,,,,0.6994686998
1740465470204164746,0.016,,,,0.7002390633
1740465470211868381,0.0,,,,0.7010094268
1740465470219572016,-0.031,,,,0.7017797903
1740465470227275651,-0.067,,,,0.7025501538
1740465470234979286,-0.106,,,,0.7033205173
1740465470242682921,-0.142,,,,0.7040908808
1740465470250386556,-0.171,,,,0.7048612443
1740465470258090191,-0.191,,,,0.7056316078
1740465470265793826,-0.2,,,,0.7064019713
1740465470273497461,-0.2,,,,0.7071723348
1740465470281201096,-0.198,,,,0.7079426983
1740465470288904731,-0.193,,,,0.7087130618
1740465470296608366,-0.188,,,,0.7094834253
1740465470304312001,-0.179,,,,0.7102537888
1740465470312015636,-0.169,,,,0.7110241523
1740465470319719271,-0.159,,,,0.7117945158
1740465470327422906,-0.152,,,,0.7125648793
1740465470335126541,-0.147,,,,0.7133352428
1740465470342830176,-0.14,,,,0.7141056063
1740465470350533811,-0.13,,,,0.7148759698
1740465470358237446,-0.125,,,,0.7156463333
1740465470365941081,-0.121,,,,0.7164166968
1740465470373644716,-0.123,,,,0.7171870603
1740465470381348351,-0.125,,,,0.7179574238
1740465470389051986,-0.121,,,,0.7187277873
1740465470396755621,-0.121,,,,0.7194981508
1740465470404459256,-0.123,,,,0.7202685143
1740465470412162891,-0.123,,,,0.7210388778
1740465470419866526,-0.125,,,,0.7218092413
1740465470427570161,-0.128,,,,0.7225796048
1740465470435273796,-0.13,,,,0.7233499683
1740465470442977431,-0.13,,,,0.7241203318
1740465470450681066,-0.13,,,,0.7248906953
1740465470458384701,-0.133,,,,0.7256610588
1740465470466088336,-0.133,,,,0.7264314223
1740465470473791971,-0.135,,,,0.7272017858
1740465470481495606,-0.135,,,,0.7279721493
1740465470489199241,-0.135,,,,0.7287425128
1740465470496902876,-0.135,,,,0.7295128763
1740465470504606511,-0.133,,,,0.7302832398
1740465470512310153,-0.13,60.0,981.0,,0.731053604
1740465470520013369,-0.128,,,,0.7318239256
1740465470527716585,-0.13,,,,0.7325942472
1740465470535419801,-0.13,,,,0.7333645688
1740465470543123017,-0.13,,,,0.7341348904
1740465470550826233,-0.13,,,,0.734905212
1740465470558529449,-0.128,,,,0.7356755336
1740465470566232665,-0.123,,,,0.7364458552
1740465470573935881,-0.123,,,,0.7372161768
1740465470581639097,-0.125,,,,0.7379864984
1740465470589342313,-0.123,,,,0.73875682
1740465470597045529,-0.121,,,,0.7395271416
1740465470604748745,-0.121,,,,0.7402974632
1740465470612451961,-0.123,,,,0.7410677848
1740465470620155177,-0.123,,,,0.7418381064
1740465470627858393,-0.118,,,,0.742608428
1740465470635561609,-0.118,,,,0.7433787496
1740465470643264825,-0.118,,,,0.7441490712
1740465470650968041,-0.121,,,,0.7449193928
1740465470658671257,-0.118,,,,0.7456897144
1740465470666374473,-0.118,,,,0.746460036
1740465470674077689,-0.116,,,,0.7472303576
1740465470681780905,-0.113,,,,0.7480006792
1740465470689484121,-0.116,,,,0.7487710008
1740465470697187337,-0.121,,,,0.7495413224
1740465470704890553,-0.113,,,,0.750311644
1740465470712593769,-0.101,,,,0.7510819656
1740465470720296985,-0.096,,,,0.7518522872
1740465470728000201,-0.094,,,,0.7526226088
1740465470735703417,-0.094,,,,0.7533929304
1740465470743406633,-0.108,,,,0.754163252
1740465470751109849,-0.125,,,,0.7549335736
1740465470758813065,-0.125,,,,0.7557038952
1740465470766516281,-0.118,,,,0.7564742168
1740465470774219497,-0.118,,,,0.7572445384
1740465470781922713,-0.118,,,,0.75801486
1740465470789625929,-0.116,,,,0.7587851816
1740465470797329145,-0.121,,,,0.7595555032
1740465470805032361,-0.121,,,,0.7603258248
1740465470812735577,-0.116,,,,0.7610961464
1740465470820438793,-0.113,,,,0.761866468
1740465470828142009,-0.113,,,,0.7626367896
1740465470835845225,-0.116,,,,0.7634071112
1740465470843548441,-0.125,,,,0.7641774328
1740465470851251657,-0.133,,,,0.7649477544
1740465470858954873,-0.079,,,,0.765718076
1740465470866658089,0.111,,,,0.7664883976
1740465470874361305,0.363,,,,0.7672587192
1740465470882064521,0.559,,,,0.7680290408
1740465470889767737,0.711,,,,0.7687993624
1740465470897470953,0.508,,,,0.769569684
1740465470905174169,-0.215,,,,0.7703400056
1740465470912877385,-0.612,,,,0.7711103272
1740465470920580601,-0.322,,,,0.7718806488
1740465470928283817,-0.121,,,,0.7726509704
1740465470935987033,-0.213,,,,0.773421292
1740465470943690249,-0.2,,,,0.7741916136
1740465470951393465,-0.138,,,,0.7749619352
1740465470959096681,-0.157,,,,0.7757322568
1740465470966799897,-0.162,,,,0.7765025784
1740465470974503113,-0.133,,,,0.7772729
1740465470982206329,-0.125,,,,0.7780432216
1740465470989909545,-0.123,,,,0.7788135432
1740465470997612761,-0.111,,,,0.7795838648
1740465471005315977,-0.101,,,,0.7803541864
1740465471013019193,-0.099,,,,0.781124508
1740465471020722409,-0.094,,,,0.7818948296
1740465471028425625,-0.087,,,,0.7826651512
1740465471036128841,-0.079,,,,0.7834354728
1740465471043832057,-0.075,,,,0.7842057944
1740465471051535273,-0.065,,,,0.784976116
1740465471059238489,-0.058,,,,0.7857464376
1740465471066941705,-0.053,,,,0.7865167592
1740465471074644993,-0.043,,,,0.787287088
1740465471082348209,-0.033,,,,0.7880574096
1740465471090051425,-0.024,,,,0.7888277312
1740465471097754641,-0.014,,,,0.7895980528
1740465471105457857,-0.002,,,,0.7903683744
1740465471113161073,0.009,,,,0.791138696
1740465471120864289,0.021,,,,0.7919090176
1740465471128567505,0.029,,,,0.7926793392
1740465471136270721,0.038,,,,0.7934496608
1740465471143973937,0.046,,,,0.7942199824
1740465471151677153,0.046,,,,0.794990304
1740465471159380369,0.043,,,,0.7957606256
1740465471167083585,0.046,,,,0.7965309472
1740465471174786801,0.038,,,,0.7973012688
1740465471182490017,0.019,,,,0.7980715904
1740465471190193233,-0.007,,,,0.798841912
1740465471197896449,-0.038,,,,0.7996122336
1740465471205599665,-0.079,,,,0.8003825552
1740465471213302881,-0.125,,,,0.8011528768
1740465471221006097,-0.162,,,,0.8019231984
1740465471228709313,-0.186,,,,0.80269352
1740465471236412529,-0.203,,,,0.8034638416
1740465471244115745,-0.21,,,,0.8042341632
1740465471251818961,-0.213,,,,0.8050044848
1740465471259522177,-0.208,,,,0.8057748064
1740465471267225393,-0.198,,,,0.806545128
1740465471274928609,-0.186,,,,0.8073154496
1740465471282631825,-0.179,,,,0.8080857712
1740465471290335041,-0.167,,,,0.8088560928
1740465471298038257,-0.157,,,,0.8096264144
1740465471305741473,-0.15,,,,0.810396736
1740465471313444689,-0.14,,,,0.8111670576
1740465471321147905,-0.13,,,,0.8119373792
1740465471328851121,-0.123,,,,0.8127077008
1740465471336554337,-0.118,,,,0.8134780224
1740465471344257553,-0.116,,,,0.814248344
1740465471351960769,-0.113,,,,0.8150186656
1740465471359663985,-0.111,,,,0.8157889872
1740465471367367201,-0.111,,,,0.8165593088
1740465471375070417,-0.108,,,,0.8173296304
1740465471382773633,-0.108,,,,0.818099952
1740465471390476849,-0.111,,,,0.8188702736
1740465471398180065,-0.113,,,,0.8196405952
1740465471405883281,-0.116,,,,0.8204109168
1740465471413586497,-0.116,,,,0.8211812384
1740465471421289713,-0.118,,,,0.82195156
1740465471428992929,-0.121,,,,0.8227218816
1740465471436696145,-0.121,,,,0.8234922032
1740465471444399361,-0.121,,,,0.8242625248
1740465471452102577,-0.121,,,,0.8250328464
1740465471459805793,-0.118,,,,0.825803168
1740465471467509009,-0.118,,,,0.8265734896
1740465471475212225,-0.116,,,,0.8273438112
1740465471482915441,-0.116,,,,0.8281141328
1740465471490618657,-0.116,,,,0.8288844544
1740465471498321873,-0.113,,,,0.829654776
1740465471506025089,-0.111,,,,0.8304250976
1740465471513728305,-0.108,,,,0.8311954192
1740465471521431521,-0.108,,,,0.8319657408
1740465471529134737,-0.108,,,,0.8327360624
1740465471536837953,-0.108,,,,0.833506384
1740465471544541169,-0.106,,,,0.8342767056
1740465471552244385,-0.104,,,,0.8350470272
1740465471559947601,-0.106,,,,0.8358173488
1740465471567650817,-0.104,,,,0.8365876704
1740465471575354033,-0.101,,,,0.837357992
1740465471583057249,-0.101,,,,0.8381283136
1740465471590760465,-0.101,,,,0.8388986352
1740465471598463681,-0.099,,,,0.8396689568
1740465471606166897,-0.099,,,,0.8404392784
1740465471613870113,-0.099,,,,0.8412096
1740465471621573329,-0.099,,,,0.8419799216
1740465471629276545,-0.096,,,,0.8427502432
1740465471636979833,-0.094,60.0,1034.0,,0.843520572
1740465471644683328,-0.089,,,,0.8442909215
1740465471652386823,-0.092,,,,0.845061271
1740465471660090318,-0.094,,,,0.8458316205
1740465471667793813,-0.092,,,,0.84660197
1740465471675497308,-0.082,,,,0.8473723195
1740465471683200803,-0.072,,,,0.848142669
1740465471690904298,-0.065,,,,0.8489130185
1740465471698607793,-0.067,,,,0.849683368
1740465471706311288,-0.079,,,,0.8504537175
1740465471714014783,-0.094,,,,0.851224067
1740465471721718278,-0.096,,,,0.8519944165
1740465471729421773,-0.089,,,,0.852764766
1740465471737125268,-0.089,,,,0.8535351155
1740465471744828763,-0.092,,,,0.854305465
1740465471752532258,-0.089,,,,0.8550758145
1740465471760235753,-0.087,,,,0.855846164
1740465471767939248,-0.089,,,,0.8566165135
1740465471775642743,-0.089,,,,0.857386863
1740465471783346238,-0.087,,,,0.8581572125
1740465471791049733,-0.084,,,,0.858927562
1740465471798753228,-0.087,,,,0.8596979115
1740465471806456723,-0.092,,,,0.860468261
1740465471814160218,-0.108,,,,0.8612386105
1740465471821863713,-0.082,,,,0.86200896
1740465471829567208,0.079,,,,0.8627793095
1740465471837270703,0.329,,,,0.863549659
1740465471844974198,0.535,,,,0.8643200085
1740465471852677693,0.74,,,,0.865090358
1740465471860381188,0.6920000000000001,,,,0.8658607075
1740465471868084683,0.029,,,,0.866631057
1740465471875788178,-0.552,,,,0.8674014065
1740465471883491673,-0.368,,,,0.868171756
1740465471891195168,-0.087,,,,0.8689421055
1740465471898898663,-0.159,,,,0.869712455
1740465471906602158,-0.196,,,,0.8704828045
1740465471914305653,-0.121,,,,0.871253154
1740465471922009148,-0.123,,,,0.8720235035
1740465471929712643,-0.138,,,,0.872793853
1740465471937416138,-0.108,,,,0.8735642025
1740465471945119633,-0.096,,,,0.874334552
1740465471952823128,-0.099,,,,0.8751049015
1740465471960526623,-0.089,,,,0.875875251
1740465471968230118,-0.077,,,,0.8766456005
1740465471975933613,-0.072,,,,0.87741595
1740465471983637108,-0.067,,,,0.8781862995
1740465471991340603,-0.058,,,,0.878956649
1740465471999044098,-0.053,,,,0.8797269985
1740465472006747593,-0.048,,,,0.880497348
1740465472014451088,-0.041,,,,0.8812676975
1740465472022154583,-0.033,,,,0.882038047
1740465472029858078,-0.026,,,,0.8828083965
1740465472037561573,-0.019,,,,0.883578746
1740465472045265068,-0.009,,,,0.8843490955
1740465472052968563,-0.002,,,,0.885119445
1740465472060672058,0.009,,,,0.8858897945
1740465472068375553,0.019,,,,0.886660144
1740465472076079048,0.029,,,,0.8874304935
1740465472083782543,0.043,,,,0.888200843
1740465472091486038,0.055,,,,0.8889711925
1740465472099189533,0.062,,,,0.889741542
1740465472106893028,0.065,,,,0.8905118915
1740465472114596523,0.07,,,,0.891282241
1740465472122300018,0.07,,,,0.8920525905
1740465472130003513,0.067,,,,0.89282294
1740465472137707008,0.062,,,,0.8935932895
1740465472145410503,0.05,,,,0.894363639
1740465472153113998,0.029,,,,0.8951339885
1740465472160817493,-0.004,,,,0.895904338
1740465472168520988,-0.046,,,,0.8966746875
1740465472176224483,-0.089,,,,0.897445037
1740465472183927978,-0.125,,,,0.8982153865
1740465472191631473,-0.152,,,,0.898985736
1740465472199335021,-0.171,60.0,1025.0,,0.8997560908
1740465472207038307,-0.179,,,,0.9005264194
1740465472214741593,-0.179,,,,0.901296748
1740465472222444879,-0.176,,,,0.9020670766
1740465472230148165,-0.169,,,,0.9028374052
1740465472237851451,-0.162,,,,0.9036077338
1740465472245554737,-0.15,,,,0.9043780624
1740465472253258023,-0.142,,,,0.905148391
1740465472260961309,-0.135,,,,0.9059187196
1740465472268664595,-0.125,,,,0.9066890482
1740465472276367881,-0.118,,,,0.9074593768
1740465472284071167,-0.111,,,,0.9082297054
1740465472291774453,-0.104,,,,0.909000034
1740465472299477739,-0.099,,,,0.9097703626
1740465472307181025,-0.096,,,,0.9105406912
1740465472314884311,-0.096,,,,0.9113110198
1740465472322587597,-0.094,,,,0.9120813484
1740465472330290883,-0.092,,,,0.912851677
1740465472337994169,-0.092,,,,0.9136220056
1740465472345697455,-0.092,,,,0.9143923342
1740465472353400741,-0.094,,,,0.9151626628
1740465472361104027,-0.094,,,,0.9159329914
1740465472368807313,-0.094,,,,0.91670332
1740465472376510599,-0.096,,,,0.9174736486
1740465472384213885,-0.099,,,,0.9182439772
1740465472391917171,-0.099,,,,0.9190143058
1740465472399620457,-0.099,,,,0.9197846344
1740465472407323743,-0.101,,,,0.920554963
1740465472415027029,-0.101,,,,0.9213252916
1740465472422730315,-0.099,,,,0.9220956202
1740465472430433601,-0.099,,,,0.9228659488
1740465472438136887,-0.101,,,,0.9236362774
1740465472445840173,-0.101,,,,0.924406606
1740465472453543459,-0.099,,,,0.9251769346
1740465472461246745,-0.096,,,,0.9259472632
1740465472468950031,-0.096,,,,0.9267175918
1740465472476653317,-0.096,,,,0.9274879204
1740465472484356603,-0.094,,,,0.928258249
1740465472492059889,-0.092,,,,0.9290285776
1740465472499763175,-0.092,,,,0.9297989062
1740465472507466461,-0.092,,,,0.9305692348
1740465472515169747,-0.089,,,,0.9313395634
1740465472522873033,-0.089,,,,0.932109892
1740465472530576319,-0.089,,,,0.9328802206
1740465472538279605,-0.092,,,,0.9336505492
1740465472545982891,-0.089,,,,0.9344208778
1740465472553686177,-0.087,,,,0.9351912064
1740465472561389463,-0.087,,,,0.935961535
1740465472569092749,-0.087,,,,0.9367318636
1740465472576796035,-0.084,,,,0.9375021922
1740465472584499321,-0.084,,,,0.9382725208
1740465472592202607,-0.084,,,,0.9390428494
1740465472599905893,-0.084,,,,0.939813178
1740465472607609179,-0.084,,,,0.9405835066
1740465472615312465,-0.084,,,,0.9413538352
1740465472623015751,-0.082,,,,0.9421241638
1740465472630719037,-0.082,,,,0.9428944924
1740465472638422323,-0.082,,,,0.943664821
1740465472646125609,-0.082,,,,0.9444351496
1740465472653828895,-0.079,,,,0.9452054782
1740465472661532181,-0.079,,,,0.9459758068
1740465472669235467,-0.077,,,,0.9467461354
1740465472676938753,-0.077,,,,0.947516464
1740465472684642039,-0.075,,,,0.9482867926
1740465472692345325,-0.077,,,,0.9490571212
1740465472700048611,-0.082,,,,0.9498274498
1740465472707751897,-0.077,,,,0.9505977784
1740465472715455183,-0.07,,,,0.951368107
1740465472723158469,-0.062,,,,0.9521384356
1740465472730861755,-0.055,,,,0.9529087642
1740465472738565041,-0.053,,,,0.9536790928
1740465472746268327,-0.062,,,,0.9544494214
1740465472753971613,-0.079,,,,0.95521975
1740465472761674948,-0.084,,,,0.9559900835
1740465472769378234,-0.079,,,,0.9567604121
1740465472777081520,-0.079,,,,0.9575307407
1740465472784784806,-0.079,,,,0.9583010693
1740465472792488092,-0.079,,,,0.9590713979
1740465472800191378,-0.077,,,,0.9598417265
1740465472807894664,-0.077,,,,0.9606120551
1740465472815597950,-0.077,,,,0.9613823837
1740465472823301236,-0.077,,,,0.9621527123
1740465472831004522,-0.075,,,,0.9629230409
1740465472838707808,-0.072,,,,0.9636933695
1740465472846411094,-0.077,,,,0.9644636981
1740465472854114380,-0.096,,,,0.9652340267
1740465472861817666,-0.082,,,,0.9660043553
1740465472869520952,0.055,,,,0.9667746839
1740465472877224238,0.276,,,,0.9675450125
1740465472884927524,0.462,,,,0.9683153411
1740465472892630810,0.668,,,,0.9690856697
1740465472900334096,0.726,,,,0.9698559983
1740465472908037382,0.2,,,,0.9706263269
1740465472915740668,-0.435,,,,0.9713966555
1740465472923443954,-0.399,,,,0.9721669841
1740465472931147240,-0.106,,,,0.9729373127
1740465472938850526,-0.125,,,,0.9737076413
1740465472946553812,-0.191,,,,0.9744779699
1740465472954257098,-0.13,,,,0.9752482985
1740465472961960384,-0.118,,,,0.9760186271
1740465472969663670,-0.135,,,,0.9767889557
1740465472977366956,-0.113,,,,0.9775592843
1740465472985070242,-0.094,,,,0.9783296129
1740465472992773528,-0.096,,,,0.9790999415
1740465473000476814,-0.087,,,,0.9798702701
1740465473008180100,-0.077,,,,0.9806405987
1740465473015883386,-0.075,,,,0.9814109273
1740465473023586672,-0.07,,,,0.9821812559
1740465473031289958,-0.06,,,,0.9829515845
1740465473038993244,-0.055,,,,0.9837219131
1740465473046696530,-0.05,,,,0.9844922417
1740465473054399816,-0.041,,,,0.9852625703
1740465473062103102,-0.036,,,,0.9860328989
1740465473069806388,-0.031,,,,0.9868032275
1740465473077509674,-0.024,,,,0.9875735561
1740465473085212960,-0.014,,,,0.9883438847
1740465473092916246,-0.007,,,,0.9891142133
1740465473100619532,0.004,,,,0.9898845419
1740465473108322818,0.012,,,,0.9906548705
1740465473116026104,0.021,,,,0.9914251991
1740465473123729390,0.031,,,,0.9921955277
1740465473131432676,0.041,,,,0.9929658563
1740465473139135962,0.048,,,,0.9937361849
1740465473146839248,0.055,,,,0.9945065135
1740465473154542534,0.058,,,,0.9952768421
1740465473162245820,0.058,,,,0.9960471707
1740465473169949106,0.058,,,,0.9968174993
1740465473177652392,0.053,,,,0.9975878279
1740465473185355678,0.046,,,,0.9983581565
1740465473193058964,0.031,,,,0.9991284851
1740465473200762250,0.004,,,,0.9998988137
1740465473208465536,-0.029,,,,1.0006691423
1740465473216168822,-0.065,,,,1.0014394709
1740465473223872108,-0.101,,,,1.0022097995
1740465473231575394,-0.13,,,,1.0029801281
1740465473239278680,-0.15,,,,1.0037504567
1740465473246981966,-0.162,,,,1.0045207853
1740465473254685252,-0.164,,,,1.0052911139
1740465473262388538,-0.162,,,,1.0060614425
1740465473270091824,-0.157,,,,1.0068317711
1740465473277795110,-0.15,,,,1.0076020997
1740465473285498396,-0.142,,,,1.0083724283
1740465473293201682,-0.138,,,,1.0091427569
1740465473300904968,-0.128,,,,1.0099130855
1740465473308608254,-0.121,,,,1.0106834141
1740465473316311540,-0.113,,,,1.0114537427
1740465473324014871,-0.108,60.0,977.0,,1.0122240758
1740465473331718506,-0.101,,,,1.0129944393
1740465473339422141,-0.099,,,,1.0137648028
1740465473347125776,-0.094,,,,1.0145351663
1740465473354829411,-0.092,,,,1.0153055298
1740465473362533046,-0.089,,,,1.0160758933
1740465473370236681,-0.089,,,,1.0168462568
1740465473377940316,-0.087,,,,1.0176166203
1740465473385643951,-0.087,,,,1.0183869838
1740465473393347586,-0.087,,,,1.0191573473
1740465473401051221,-0.087,,,,1.0199277108
1740465473408754856,-0.087,,,,1.0206980743
1740465473416458491,-0.089,,,,1.0214684378
1740465473424162126,-0.092,,,,1.0222388013
1740465473431865761,-0.092,,,,1.0230091648
1740465473439569396,-0.094,,,,1.0237795283
1740465473447273031,-0.094,,,,1.0245498918
1740465473454976666,-0.096,,,,1.0253202553
1740465473462680301,-0.096,,,,1.0260906188
1740465473470383936,-0.094,,,,1.0268609823
1740465473478087571,-0.092,,,,1.0276313458
1740465473485791206,-0.094,,,,1.0284017093
1740465473493494841,-0.096,,,,1.0291720728
1740465473501198476,-0.096,,,,1.0299424363
1740465473508902111,-0.094,,,,1.0307127998
1740465473516605746,-0.094,,,,1.0314831633
1740465473524309381,-0.094,,,,1.0322535268
1740465473532013016,-0.094,,,,1.0330238903
1740465473539716651,-0.094,,,,1.0337942538
1740465473547420286,-0.094,,,,1.0345646173
1740465473555123921,-0.094,,,,1.0353349808
1740465473562827556,-0.089,,,,1.0361053443
1740465473570531191,-0.087,,,,1.0368757078
1740465473578234826,-0.087,,,,1.0376460713
1740465473585938461,-0.087,,,,1.0384164348
1740465473593642096,-0.087,,,,1.0391867983
1740465473601345731,-0.089,,,,1.0399571618
1740465473609049366,-0.092,,,,1.0407275253
1740465473616753001,-0.089,,,,1.0414978888
1740465473624456636,-0.087,,,,1.0422682523
1740465473632160271,-0.089,,,,1.0430386158
1740465473639863906,-0.089,,,,1.0438089793
1740465473647567541,-0.087,,,,1.0445793428
1740465473655271176,-0.087,,,,1.0453497063
1740465473662974811,-0.087,,,,1.0461200698
1740465473670678446,-0.087,,,,1.0468904333
1740465473678382081,-0.084,,,,1.0476607968
1740465473686085716,-0.082,,,,1.0484311603
1740465473693789351,-0.079,,,,1.0492015238
1740465473701492986,-0.082,,,,1.0499718873
1740465473709196621,-0.084,,,,1.0507422508
1740465473716900256,-0.084,,,,1.0515126143
1740465473724603891,-0.084,,,,1.0522829778
1740465473732307526,-0.084,,,,1.0530533413
1740465473740011161,-0.084,,,,1.0538237048
1740465473747714796,-0.084,,,,1.0545940683
1740465473755418431,-0.087,,,,1.0553644318
1740465473763122066,-0.079,,,,1.0561347953
1740465473770825701,-0.075,,,,1.0569051588
1740465473778529336,-0.07,,,,1.0576755223
1740465473786232971,-0.062,,,,1.0584458858
1740465473793936606,-0.065,,,,1.0592162493
1740465473801640241,-0.079,,,,1.0599866128
1740465473809343876,-0.089,,,,1.0607569763
1740465473817047511,-0.087,,,,1.0615273398
1740465473824751146,-0.084,,,,1.0622977033
1740465473832454781,-0.089,,,,1.0630680668
1740465473840158416,-0.087,,,,1.0638384303
1740465473847862051,-0.084,,,,1.0646087938
1740465473855565686,-0.087,,,,1.0653791573
1740465473863269321,-0.089,,,,1.0661495208
1740465473870972956,-0.089,,,,1.0669198843
1740465473878676591,-0.089,,,,1.0676902478
1740465473886380233,-0.089,,,,1.068460612
1740465473894083449,-0.089,,,,1.0692309336
1740465473901786665,-0.096,,,,1.0700012552
1740465473909489881,-0.108,,,,1.0707715768
1740465473917193097,-0.046,,,,1.0715418984
1740465473924896313,0.142,,,,1.07231222
1740465473932599529,0.358,,,,1.0730825416
1740465473940302745,0.542,,,,1.0738528632
1740465473948005961,0.706,,,,1.0746231848
1740465473955709177,0.472,,,,1.0753935064
1740465473963412393,-0.215,,,,1.076163828
1740465473971115609,-0.515,,,,1.0769341496
1740465473978818825,-0.237,,,,1.0777044712
1740465473986522041,-0.101,,,,1.0784747928
1740465473994225257,-0.191,,,,1.0792451144
1740465474001928473,-0.174,,,,1.080015436
1740465474009631689,-0.123,,,,1.0807857576
1740465474017334905,-0.138,,,,1.0815560792
1740465474025038121,-0.135,,,,1.0823264008
1740465474032741337,-0.111,,,,1.0830967224
1740465474040444553,-0.106,,,,1.083867044
1740465474048147769,-0.104,,,,1.0846373656
1740465474055850985,-0.092,,,,1.0854076872
1740465474063554201,-0.084,,,,1.0861780088
1740465474071257417,-0.082,,,,1.0869483304
1740465474078960633,-0.072,,,,1.087718652
1740465474086663849,-0.065,,,,1.0884889736
1740465474094367065,-0.062,,,,1.0892592952
1740465474102070281,-0.055,,,,1.0900296168
1740465474109773497,-0.048,,,,1.0907999384
1740465474117476713,-0.046,,,,1.09157026
1740465474125179929,-0.038,,,,1.0923405816
1740465474132883145,-0.029,,,,1.0931109032
1740465474140586361,-0.021,,,,1.0938812248
1740465474148289577,-0.014,,,,1.0946515464
1740465474155992793,-0.004,,,,1.095421868
1740465474163696009,0.007,,,,1.0961921896
1740465474171399225,0.019,,,,1.0969625112
1740465474179102441,0.026,,,,1.0977328328
1740465474186805657,0.033,,,,1.0985031544
1740465474194508873,0.043,,,,1.099273476
1740465474202212089,0.05,,,,1.1000437976
1740465474209915305,0.05,,,,1.1008141192
1740465474217618521,0.046,,,,1.1015844408
1740465474225321737,0.043,,,,1.1023547624
1740465474233024953,0.036,,,,1.103125084
1740465474240728169,0.024,,,,1.1038954056
1740465474248431385,0.004,,,,1.1046657272
1740465474256134601,-0.029,,,,1.1054360488
1740465474263837817,-0.067,,,,1.1062063704
1740465474271541033,-0.106,,,,1.106976692
1740465474279244249,-0.138,,,,1.1077470136
1740465474286947465,-0.162,,,,1.1085173352
1740465474294650681,-0.181,,,,1.1092876568
1740465474302353897,-0.186,,,,1.1100579784
1740465474310057113,-0.186,,,,1.1108283
1740465474317760329,-0.186,,,,1.1115986216
1740465474325463545,-0.181,,,,1.1123689432
1740465474333166761,-0.171,,,,1.1131392648
1740465474340869977,-0.162,,,,1.1139095864
1740465474348573193,-0.157,,,,1.114679908
1740465474356276409,-0.15,,,,1.1154502296
1740465474363979625,-0.14,,,,1.1162205512
1740465474371682841,-0.133,,,,1.1169908728
1740465474379386057,-0.125,,,,1.1177611944
1740465474387089273,-0.121,,,,1.118531516
1740465474394792489,-0.116,,,,1.1193018376
1740465474402495705,-0.111,,,,1.1200721592
1740465474410198921,-0.111,,,,1.1208424808
1740465474417902137,-0.111,,,,1.1216128024
1740465474425605353,-0.108,,,,1.122383124
1740465474433308569,-0.111,,,,1.1231534456
1740465474441011785,-0.116,,,,1.1239237672
1740465474448715073,-0.116,60.0,965.0,,1.124694096
1740465474456418499,-0.113,,,,1.1254644386
1740465474464121925,-0.116,,,,1.1262347812
1740465474471825351,-0.121,,,,1.1270051238
1740465474479528777,-0.123,,,,1.1277754664
1740465474487232203,-0.123,,,,1.128545809
1740465474494935629,-0.123,,,,1.1293161516
1740465474502639055,-0.123,,,,1.1300864942
1740465474510342481,-0.123,,,,1.1308568368
1740465474518045907,-0.125,,,,1.1316271794
1740465474525749333,-0.125,,,,1.132397522
1740465474533452759,-0.123,,,,1.1331678646
1740465474541156185,-0.121,,,,1.1339382072
1740465474548859611,-0.123,,,,1.1347085498
1740465474556563037,-0.121,,,,1.1354788924
1740465474564266463,-0.118,,,,1.136249235
1740465474571969889,-0.118,,,,1.1370195776
1740465474579673315,-0.118,,,,1.1377899202
1740465474587376741,-0.116,,,,1.1385602628
1740465474595080167,-0.116,,,,1.1393306054
1740465474602783593,-0.116,,,,1.140100948
1740465474610487019,-0.116,,,,1.1408712906
1740465474618190445,-0.113,,,,1.1416416332
1740465474625893871,-0.113,,,,1.1424119758
1740465474633597297,-0.116,,,,1.1431823184
1740465474641300723,-0.116,,,,1.143952661
1740465474649004149,-0.113,,,,1.1447230036
1740465474656707575,-0.113,,,,1.1454933462
1740465474664411001,-0.113,,,,1.1462636888
1740465474672114427,-0.113,,,,1.1470340314
1740465474679817853,-0.113,,,,1.147804374
1740465474687521279,-0.113,,,,1.1485747166
1740465474695224705,-0.111,,,,1.1493450592
1740465474702928131,-0.111,,,,1.1501154018
1740465474710631557,-0.108,,,,1.1508857444
1740465474718334983,-0.108,,,,1.151656087
1740465474726038409,-0.111,,,,1.1524264296
1740465474733741835,-0.108,,,,1.1531967722
1740465474741445261,-0.108,,,,1.1539671148
1740465474749148687,-0.111,,,,1.1547374574
1740465474756852113,-0.111,,,,1.1555078
1740465474764555539,-0.101,,,,1.1562781426
1740465474772258965,-0.094,,,,1.1570484852
1740465474779962391,-0.084,,,,1.1578188278
1740465474787665817,-0.084,,,,1.1585891704
1740465474795369243,-0.094,,,,1.159359513
1740465474803072669,-0.111,,,,1.1601298556
1740465474810776095,-0.118,,,,1.1609001982
1740465474818479521,-0.111,,,,1.1616705408
1740465474826182947,-0.108,,,,1.1624408834
1740465474833886373,-0.111,,,,1.163211226
1740465474841589799,-0.111,,,,1.1639815686
1740465474849293225,-0.108,,,,1.1647519112
1740465474856996651,-0.108,,,,1.1655222538
1740465474864700077,-0.111,,,,1.1662925964
1740465474872403503,-0.111,,,,1.167062939
1740465474880106929,-0.111,,,,1.1678332816
1740465474887810355,-0.108,,,,1.1686036242
1740465474895513781,-0.113,,,,1.1693739668
1740465474903217207,-0.125,,,,1.1701443094
1740465474910920633,-0.108,,,,1.170914652
1740465474918624059,0.033,,,,1.1716849946
1740465474926327485,0.285,,,,1.1724553372
1740465474934030911,0.501,,,,1.1732256798
1740465474941734337,0.682,,,,1.1739960224
1740465474949437763,0.67,,,,1.174766365
1740465474957141189,0.082,,,,1.1755367076
1740465474964844615,-0.556,,,,1.1763070502
1740465474972548041,-0.462,,,,1.1770773928
1740465474980251467,-0.145,,,,1.1778477354
1740465474987954893,-0.174,,,,1.178618078
1740465474995658319,-0.227,,,,1.1793884206
1740465475003361745,-0.154,,,,1.1801587632
1740465475011065174,-0.142,,,,1.1809291061
1740465475018768460,-0.162,,,,1.1816994347
1740465475026471746,-0.135,,,,1.1824697633
1740465475034175032,-0.121,,,,1.1832400919
1740465475041878318,-0.125,,,,1.1840104205
1740465475049581604,-0.113,,,,1.1847807491
1740465475057284890,-0.099,,,,1.1855510777
1740465475064988176,-0.094,,,,1.1863214063
1740465475072691462,-0.092,,,,1.1870917349
1740465475080394748,-0.084,,,,1.1878620635
1740465475088098034,-0.075,,,,1.1886323921
1740465475095801320,-0.07,,,,1.1894027207
1740465475103504606,-0.06,,,,1.1901730493
1740465475111207892,-0.055,,,,1.1909433779
1740465475118911178,-0.05,,,,1.1917137065
1740465475126614464,-0.041,,,,1.1924840351
1740465475134317750,-0.029,,,,1.1932543637
1740465475142021036,-0.021,,,,1.1940246923
1740465475149724322,-0.016,,,,1.1947950209
1740465475157427608,-0.004,,,,1.1955653495
1740465475165130894,0.009,,,,1.1963356781
1740465475172834180,0.021,,,,1.1971060067
1740465475180537466,0.031,,,,1.1978763353
1740465475188240752,0.041,,,,1.1986466639
1740465475195944038,0.05,,,,1.1994169925
1740465475203647324,0.053,,,,1.2001873211
1740465475211350610,0.05,,,,1.2009576497
1740465475219053896,0.048,,,,1.2017279783
1740465475226757182,0.043,,,,1.2024983069
1740465475234460468,0.033,,,,1.2032686355
1740465475242163754,0.012,,,,1.2040389641
1740465475249867040,-0.024,,,,1.2048092927
1740465475257570326,-0.067,,,,1.2055796213
1740465475265273612,-0.108,,,,1.2063499499
1740465475272976898,-0.147,,,,1.2071202785
1740465475280680184,-0.181,,,,1.2078906071
1740465475288383470,-0.203,,,,1.2086609357
1740465475296086756,-0.21,,,,1.2094312643
1740465475303790042,-0.21,,,,1.2102015929
1740465475311493328,-0.21,,,,1.2109719215
1740465475319196614,-0.205,,,,1.2117422501
1740465475326899900,-0.193,,,,1.2125125787
1740465475334603186,-0.181,,,,1.2132829073
1740465475342306472,-0.171,,,,1.2140532359
1740465475350009758,-0.164,,,,1.2148235645
1740465475357713044,-0.154,,,,1.2155938931
1740465475365416330,-0.145,,,,1.2163642217
1740465475373119616,-0.135,,,,1.2171345503
1740465475380822902,-0.125,,,,1.2179048789
1740465475388526188,-0.118,,,,1.2186752075
1740465475396229474,-0.111,,,,1.2194455361
1740465475403932760,-0.108,,,,1.2202158647
1740465475411636046,-0.106,,,,1.2209861933
1740465475419339332,-0.104,,,,1.2217565219
1740465475427042618,-0.099,,,,1.2225268505
1740465475434745904,-0.099,,,,1.2232971791
1740465475442449190,-0.104,,,,1.2240675077
1740465475450152476,-0.104,,,,1.2248378363
1740465475457855762,-0.101,,,,1.2256081649
1740465475465559048,-0.104,,,,1.2263784935
1740465475473262334,-0.108,,,,1.2271488221
1740465475480965620,-0.108,,,,1.2279191507
1740465475488668906,-0.108,,,,1.2286894793
1740465475496372192,-0.111,,,,1.2294598079
1740465475504075478,-0.108,,,,1.2302301365
1740465475511778764,-0.111,,,,1.2310004651
1740465475519482050,-0.111,,,,1.2317707937
1740465475527185336,-0.106,,,,1.2325411223
1740465475534888622,-0.106,,,,1.2333114509
1740465475542591908,-0.104,,,,1.2340817795
1740465475550295194,-0.104,,,,1.2348521081
1740465475557998480,-0.101,,,,1.2356224367
1740465475565701766,-0.101,,,,1.2363927653
1740465475573405101,-0.101,60.0,1042.0,,1.2371630988
1740465475581108387,-0.099,,,,1.2379334274
1740465475588811673,-0.099,,,,1.238703756
1740465475596514959,-0.094,,,,1.2394740846
1740465475604218245,-0.094,,,,1.2402444132
1740465475611921531,-0.094,,,,1.2410147418
1740465475619624817,-0.092,,,,1.2417850704
1740465475627328103,-0.092,,,,1.242555399
1740465475635031389,-0.092,,,,1.2433257276
1740465475642734675,-0.089,,,,1.2440960562
1740465475650437961,-0.087,,,,1.2448663848
1740465475658141247,-0.087,,,,1.2456367134
1740465475665844533,-0.087,,,,1.246407042
1740465475673547819,-0.087,,,,1.2471773706
1740465475681251105,-0.084,,,,1.2479476992
1740465475688954391,-0.082,,,,1.2487180278
1740465475696657677,-0.079,,,,1.2494883564
1740465475704360963,-0.077,,,,1.250258685
1740465475712064249,-0.079,,,,1.2510290136
1740465475719767535,-0.082,,,,1.2517993422
1740465475727470821,-0.079,,,,1.2525696708
1740465475735174107,-0.072,,,,1.2533399994
1740465475742877393,-0.065,,,,1.254110328
1740465475750580679,-0.055,,,,1.2548806566
1740465475758283965,-0.05,,,,1.2556509852
1740465475765987251,-0.055,,,,1.2564213138
1740465475773690537,-0.075,,,,1.2571916424
1740465475781393823,-0.084,,,,1.257961971
1740465475789097109,-0.079,,,,1.2587322996
1740465475796800395,-0.075,,,,1.2595026282
1740465475804503681,-0.075,,,,1.2602729568
1740465475812206967,-0.075,,,,1.2610432854
1740465475819910253,-0.075,,,,1.261813614
1740465475827613539,-0.077,,,,1.2625839426
1740465475835316825,-0.075,,,,1.2633542712
1740465475843020111,-0.072,,,,1.2641245998
1740465475850723397,-0.072,,,,1.2648949284
1740465475858426683,-0.072,,,,1.265665257
1740465475866129969,-0.072,,,,1.2664355856
1740465475873833255,-0.084,,,,1.2672059142
1740465475881536541,-0.094,,,,1.2679762428
1740465475889239827,-0.019,,,,1.2687465714
1740465475896943113,0.198,,,,1.2695169
1740465475904646399,0.435,,,,1.2702872286
1740465475912349685,0.634,,,,1.2710575572
1740465475920052971,0.801,,,,1.2718278858
1740465475927756257,0.503,,,,1.2725982144
1740465475935459543,-0.268,,,,1.273368543
1740465475943162829,-0.542,,,,1.2741388716
1740465475950866115,-0.205,,,,1.2749092002
1740465475958569401,-0.082,,,,1.2756795288
1740465475966272687,-0.186,,,,1.2764498574
1740465475973975973,-0.152,,,,1.277220186
1740465475981679259,-0.099,,,,1.2779905146
1740465475989382545,-0.123,,,,1.2787608432
1740465475997085831,-0.118,,,,1.2795311718
1740465476004789117,-0.087,,,,1.2803015004
1740465476012492403,-0.087,,,,1.281071829
1740465476020195689,-0.084,,,,1.2818421576
1740465476027898975,-0.07,,,,1.2826124862
1740465476035602261,-0.062,,,,1.2833828148
1740465476043305547,-0.06,,,,1.2841531434
1740465476051008833,-0.05,,,,1.284923472
1740465476058712119,-0.046,,,,1.2856938006
1740465476066415405,-0.041,,,,1.2864641292
1740465476074118691,-0.033,,,,1.2872344578
1740465476081821977,-0.026,,,,1.2880047864
1740465476089525263,-0.019,,,,1.288775115
1740465476097228549,-0.012,,,,1.2895454436
1740465476104931835,-0.002,,,,1.2903157722
1740465476112635121,0.004,,,,1.2910861008
1740465476120338407,0.014,,,,1.2918564294
1740465476128041693,0.026,,,,1.292626758
1740465476135745028,0.036,,,,1.2933970915
1740465476143448314,0.048,,,,1.2941674201
1740465476151151600,0.06,,,,1.2949377487
1740465476158854886,0.07,,,,1.2957080773
1740465476166558172,0.079,,,,1.2964784059
1740465476174261458,0.087,,,,1.2972487345
1740465476181964744,0.084,,,,1.2980190631
1740465476189668030,0.082,,,,1.2987893917
1740465476197371316,0.079,,,,1.2995597203
1740465476205074602,0.072,,,,1.3003300489
1740465476212777888,0.055,,,,1.3011003775
1740465476220481174,0.026,,,,1.3018707061
1740465476228184460,-0.014,,,,1.3026410347
1740465476235887746,-0.058,,,,1.3034113633
1740465476243591032,-0.099,,,,1.3041816919
1740465476251294318,-0.13,,,,1.3049520205
1740465476258997604,-0.157,,,,1.3057223491
1740465476266700890,-0.169,,,,1.3064926777
1740465476274404176,-0.171,,,,1.3072630063
1740465476282107462,-0.169,,,,1.3080333349
1740465476289810748,-0.167,,,,1.3088036635
1740465476297514034,-0.162,,,,1.3095739921
1740465476305217320,-0.152,,,,1.3103443207
1740465476312920606,-0.142,,,,1.3111146493
1740465476320623892,-0.135,,,,1.3118849779
1740465476328327178,-0.128,,,,1.3126553065
1740465476336030464,-0.121,,,,1.3134256351
1740465476343733750,-0.113,,,,1.3141959637
1740465476351437036,-0.108,,,,1.3149662923
1740465476359140322,-0.099,,,,1.3157366209
1740465476366843608,-0.094,,,,1.3165069495
1740465476374546894,-0.089,,,,1.3172772781
1740465476382250180,-0.087,,,,1.3180476067
1740465476389953466,-0.084,,,,1.3188179353
1740465476397656752,-0.084,,,,1.3195882639
1740465476405360038,-0.084,,,,1.3203585925
1740465476413063324,-0.084,,,,1.3211289211
1740465476420766610,-0.084,,,,1.3218992497
1740465476428469896,-0.084,,,,1.3226695783
1740465476436173182,-0.087,,,,1.3234399069
1740465476443876468,-0.087,,,,1.3242102355
1740465476451579754,-0.089,,,,1.3249805641
1740465476459283040,-0.092,,,,1.3257508927
1740465476466986326,-0.094,,,,1.3265212213
1740465476474689612,-0.092,,,,1.3272915499
1740465476482392898,-0.094,,,,1.3280618785
1740465476490096184,-0.094,,,,1.3288322071
1740465476497799470,-0.094,,,,1.3296025357
1740465476505502756,-0.092,,,,1.3303728643
1740465476513206042,-0.094,,,,1.3311431929
1740465476520909328,-0.092,,,,1.3319135215
1740465476528612614,-0.092,,,,1.3326838501
1740465476536315900,-0.089,,,,1.3334541787
1740465476544019186,-0.089,,,,1.3342245073
1740465476551722472,-0.087,,,,1.3349948359
1740465476559425758,-0.087,,,,1.3357651645
1740465476567129044,-0.084,,,,1.3365354931
1740465476574832330,-0.082,,,,1.3373058217
1740465476582535616,-0.082,,,,1.3380761503
1740465476590238902,-0.082,,,,1.3388464789
1740465476597942188,-0.079,,,,1.3396168075
1740465476605645474,-0.082,,,,1.3403871361
1740465476613348760,-0.082,,,,1.3411574647
1740465476621052046,-0.082,,,,1.3419277933
1740465476628755332,-0.079,,,,1.3426981219
1740465476636458618,-0.079,,,,1.3434684505
1740465476644161904,-0.079,,,,1.3442387791
1740465476651865190,-0.079,,,,1.3450091077
1740465476659568476,-0.079,,,,1.3457794363
1740465476667271762,-0.079,,,,1.3465497649
1740465476674975048,-0.082,,,,1.3473200935
1740465476682678334,-0.079,,,,1.3480904221
1740465476690381620,-0.079,,,,1.3488607507
1740465476698084951,-0.077,60.0,1051.0,,1.3496310838
1740465476705788237,-0.077,,,,1.3504014124
1740465476713491523,-0.077,,,,1.351171741
1740465476721194809,-0.077,,,,1.3519420696
1740465476728898095,-0.077,,,,1.3527123982
1740465476736601381,-0.075,,,,1.3534827268
1740465476744304667,-0.075,,,,1.3542530554
1740465476752007953,-0.072,,,,1.355023384
1740465476759711239,-0.072,,,,1.3557937126
1740465476767414525,-0.072,,,,1.3565640412
1740465476775117811,-0.075,,,,1.3573343698
1740465476782821097,-0.067,,,,1.3581046984
1740465476790524383,-0.06,,,,1.358875027
1740465476798227669,-0.053,,,,1.3596453556
1740465476805930955,-0.046,,,,1.3604156842
1740465476813634241,-0.048,,,,1.3611860128
1740465476821337527,-0.062,,,,1.3619563414
1740465476829040813,-0.075,,,,1.36272667
1740465476836744099,-0.077,,,,1.3634969986
1740465476844447385,-0.072,,,,1.3642673272
1740465476852150671,-0.072,,,,1.3650376558
1740465476859853957,-0.075,,,,1.3658079844
1740465476867557243,-0.075,,,,1.366578313
1740465476875260529,-0.075,,,,1.3673486416
1740465476882963815,-0.075,,,,1.3681189702
1740465476890667101,-0.075,,,,1.3688892988
1740465476898370387,-0.072,,,,1.3696596274
1740465476906073673,-0.072,,,,1.370429956
1740465476913776959,-0.072,,,,1.3712002846
1740465476921480245,-0.077,,,,1.3719706132
1740465476929183531,-0.094,,,,1.3727409418
1740465476936886817,-0.062,,,,1.3735112704
1740465476944590103,0.096,,,,1.374281599
1740465476952293389,0.314,,,,1.3750519276
1740465476959996675,0.498,,,,1.3758222562
1740465476967699961,0.711,,,,1.3765925848
1740465476975403247,0.677,,,,1.3773629134
1740465476983106533,0.05,,,,1.378133242
1740465476990809819,-0.489,,,,1.3789035706
1740465476998513105,-0.326,,,,1.3796738992
1740465477006216391,-0.077,,,,1.3804442278
1740465477013919677,-0.145,,,,1.3812145564
1740465477021622963,-0.181,,,,1.381984885
1740465477029326249,-0.118,,,,1.3827552136
1740465477037029535,-0.118,,,,1.3835255422
1740465477044732821,-0.13,,,,1.3842958708
1740465477052436107,-0.104,,,,1.3850661994
1740465477060139393,-0.092,,,,1.385836528
1740465477067842679,-0.092,,,,1.3866068566
1740465477075545965,-0.082,,,,1.3873771852
1740465477083249251,-0.075,,,,1.3881475138
1740465477090952537,-0.072,,,,1.3889178424
1740465477098655823,-0.065,,,,1.389688171
1740465477106359109,-0.055,,,,1.3904584996
1740465477114062395,-0.05,,,,1.3912288282
1740465477121765681,-0.048,,,,1.3919991568
1740465477129468967,-0.041,,,,1.3927694854
1740465477137172253,-0.033,,,,1.393539814
1740465477144875539,-0.029,,,,1.3943101426
1740465477152578825,-0.021,,,,1.3950804712
1740465477160282111,-0.012,,,,1.3958507998
1740465477167985397,-0.007,,,,1.3966211284
1740465477175688683,0.002,,,,1.397391457
1740465477183391969,0.014,,,,1.3981617856
1740465477191095255,0.026,,,,1.3989321142
1740465477198798541,0.033,,,,1.3997024428
1740465477206501827,0.046,,,,1.4004727714
1740465477214205113,0.055,,,,1.4012431
1740465477221908399,0.062,,,,1.4020134286
1740465477229611685,0.065,,,,1.4027837572
1740465477237314971,0.065,,,,1.4035540858
1740465477245018257,0.062,,,,1.4043244144
1740465477252721543,0.058,,,,1.405094743
1740465477260424882,0.05,60.0,997.0,,1.4058650769
1740465477268128447,0.031,,,,1.4066354334
1740465477275832012,0.002,,,,1.4074057899
1740465477283535577,-0.036,,,,1.4081761464
1740465477291239142,-0.077,,,,1.4089465029
1740465477298942707,-0.111,,,,1.4097168594
1740465477306646272,-0.14,,,,1.4104872159
1740465477314349837,-0.159,,,,1.4112575724
1740465477322053402,-0.169,,,,1.4120279289
1740465477329756967,-0.171,,,,1.4127982854
1740465477337460532,-0.167,,,,1.4135686419
1740465477345164097,-0.159,,,,1.4143389984
1740465477352867662,-0.152,,,,1.4151093549
1740465477360571227,-0.147,,,,1.4158797114
1740465477368274792,-0.14,,,,1.4166500679
1740465477375978357,-0.133,,,,1.4174204244
1740465477383681922,-0.125,,,,1.4181907809
1740465477391385487,-0.121,,,,1.4189611374
1740465477399089052,-0.116,,,,1.4197314939
1740465477406792617,-0.108,,,,1.4205018504
1740465477414496182,-0.104,,,,1.4212722069
1740465477422199747,-0.101,,,,1.4220425634
1740465477429903312,-0.099,,,,1.4228129199
1740465477437606877,-0.094,,,,1.4235832764
1740465477445310442,-0.094,,,,1.4243536329
1740465477453014007,-0.094,,,,1.4251239894
1740465477460717572,-0.092,,,,1.4258943459
1740465477468421137,-0.092,,,,1.4266647024
1740465477476124702,-0.094,,,,1.4274350589
1740465477483828267,-0.094,,,,1.4282054154
1740465477491531832,-0.094,,,,1.4289757719
1740465477499235397,-0.096,,,,1.4297461284
1740465477506938962,-0.099,,,,1.4305164849
1740465477514642527,-0.099,,,,1.4312868414
1740465477522346092,-0.101,,,,1.4320571979
1740465477530049657,-0.101,,,,1.4328275544
1740465477537753222,-0.101,,,,1.4335979109
1740465477545456787,-0.101,,,,1.4343682674
1740465477553160352,-0.104,,,,1.4351386239
1740465477560863917,-0.104,,,,1.4359089804
1740465477568567482,-0.104,,,,1.4366793369
1740465477576271047,-0.101,,,,1.4374496934
1740465477583974612,-0.099,,,,1.4382200499
1740465477591678177,-0.101,,,,1.4389904064
1740465477599381742,-0.101,,,,1.4397607629
1740465477607085307,-0.099,,,,1.4405311194
1740465477614788872,-0.099,,,,1.4413014759
1740465477622492437,-0.099,,,,1.4420718324
1740465477630196002,-0.096,,,,1.4428421889
1740465477637899567,-0.096,,,,1.4436125454
1740465477645603132,-0.096,,,,1.4443829019
1740465477653306697,-0.094,,,,1.4451532584
1740465477661010262,-0.094,,,,1.4459236149
1740465477668713827,-0.096,,,,1.4466939714
1740465477676417392,-0.096,,,,1.4474643279
1740465477684120957,-0.092,,,,1.4482346844
1740465477691824522,-0.094,,,,1.4490050409
1740465477699528087,-0.096,,,,1.4497753974
1740465477707231652,-0.096,,,,1.4505457539
1740465477714935217,-0.094,,,,1.4513161104
1740465477722638782,-0.094,,,,1.4520864669
1740465477730342347,-0.094,,,,1.4528568234
1740465477738045912,-0.092,,,,1.4536271799
1740465477745749477,-0.092,,,,1.4543975364
1740465477753453042,-0.094,,,,1.4551678929
1740465477761156607,-0.094,,,,1.4559382494
1740465477768860172,-0.094,,,,1.4567086059
1740465477776563737,-0.094,,,,1.4574789624
1740465477784267302,-0.092,,,,1.4582493189
1740465477791970867,-0.092,,,,1.4590196754
1740465477799674432,-0.092,,,,1.4597900319
1740465477807377997,-0.092,,,,1.4605603884
1740465477815081562,-0.092,,,,1.4613307449
1740465477822785153,-0.094,,,,1.462101104
1740465477830488579,-0.096,,,,1.4628714466
1740465477838192005,-0.094,,,,1.4636417892
1740465477845895431,-0.087,,,,1.4644121318
1740465477853598857,-0.079,,,,1.4651824744
1740465477861302283,-0.072,,,,1.465952817
1740465477869005709,-0.07,,,,1.4667231596
1740465477876709135,-0.079,,,,1.4674935022
1740465477884412561,-0.094,,,,1.4682638448
1740465477892115987,-0.099,,,,1.4690341874
1740465477899819413,-0.094,,,,1.46980453
1740465477907522839,-0.092,,,,1.4705748726
1740465477915226265,-0.094,,,,1.4713452152
1740465477922929691,-0.094,,,,1.4721155578
1740465477930633117,-0.094,,,,1.4728859004
1740465477938336543,-0.096,,,,1.473656243
1740465477946039969,-0.092,,,,1.4744265856
1740465477953743395,-0.092,,,,1.4751969282
1740465477961446821,-0.092,,,,1.4759672708
1740465477969150247,-0.092,,,,1.4767376134
1740465477976853673,-0.099,,,,1.477507956
1740465477984557099,-0.111,,,,1.4782782986
1740465477992260525,-0.094,,,,1.4790486412
1740465477999963951,0.041,,,,1.4798189838
1740465478007667377,0.266,,,,1.4805893264
1740465478015370803,0.462,,,,1.481359669
1740465478023074229,0.653,,,,1.4821300116
1740465478030777655,0.668,,,,1.4829003542
1740465478038481081,0.118,,,,1.4836706968
1740465478046184507,-0.484,,,,1.4844410394
1740465478053887933,-0.409,,,,1.485211382
1740465478061591359,-0.125,,,,1.4859817246
1740465478069294785,-0.152,,,,1.4867520672
1740465478076998211,-0.205,,,,1.4875224098
1740465478084701637,-0.145,,,,1.4882927524
1740465478092405063,-0.135,,,,1.489063095
1740465478100108489,-0.15,,,,1.4898334376
1740465478107811915,-0.128,,,,1.4906037802
1740465478115515341,-0.111,,,,1.4913741228
1740465478123218767,-0.111,,,,1.4921444654
1740465478130922193,-0.101,,,,1.492914808
1740465478138625619,-0.094,,,,1.4936851506
1740465478146329045,-0.094,,,,1.4944554932
1740465478154032471,-0.087,,,,1.4952258358
1740465478161735897,-0.077,,,,1.4959961784
1740465478169439323,-0.072,,,,1.496766521
1740465478177142749,-0.067,,,,1.4975368636
1740465478184846175,-0.06,,,,1.4983072062
1740465478192549601,-0.055,,,,1.4990775488
1740465478200253027,-0.05,,,,1.4998478914
1740465478207956453,-0.043,,,,1.500618234
1740465478215659879,-0.033,,,,1.5013885766
1740465478223363305,-0.026,,,,1.5021589192
1740465478231066731,-0.019,,,,1.5029292618
1740465478238770157,-0.007,,,,1.5036996044
1740465478246473583,0.004,,,,1.504469947
1740465478254177009,0.014,,,,1.5052402896
1740465478261880435,0.026,,,,1.5060106322
1740465478269583861,0.036,,,,1.5067809748
1740465478277287287,0.041,,,,1.5075513174
1740465478284990713,0.046,,,,1.50832166
1740465478292694139,0.041,,,,1.5090920026
1740465478300397565,0.036,,,,1.5098623452
1740465478308100991,0.036,,,,1.5106326878
1740465478315804417,0.029,,,,1.5114030304
1740465478323507843,0.009,,,,1.512173373
1740465478331211269,-0.016,,,,1.5129437156
1740465478338914695,-0.055,,,,1.5137140582
1740465478346618121,-0.099,,,,1.5144844008
1740465478354321547,-0.138,,,,1.5152547434
1740465478362024973,-0.167,,,,1.516025086
1740465478369728399,-0.191,,,,1.5167954286
1740465478377431825,-0.205,,,,1.5175657712
1740465478385135254,-0.21,60.0,975.0,,1.5183361141
1740465478392838540,-0.21,,,,1.5191064427
1740465478400541826,-0.205,,,,1.5198767713
1740465478408245112,-0.198,,,,1.5206470999
1740465478415948398,-0.188,,,,1.5214174285
1740465478423651684,-0.181,,,,1.5221877571
1740465478431354970,-0.171,,,,1.5229580857
1740465478439058256,-0.162,,,,1.5237284143
1740465478446761542,-0.152,,,,1.5244987429
1740465478454464828,-0.147,,,,1.5252690715
1740465478462168114,-0.138,,,,1.5260394001
1740465478469871400,-0.133,,,,1.5268097287
1740465478477574686,-0.13,,,,1.5275800573
1740465478485277972,-0.125,,,,1.5283503859
1740465478492981258,-0.121,,,,1.5291207145
1740465478500684544,-0.121,,,,1.5298910431
1740465478508387830,-0.123,,,,1.5306613717
1740465478516091116,-0.118,,,,1.5314317003
1740465478523794402,-0.118,,,,1.5322020289
1740465478531497688,-0.121,,,,1.5329723575
1740465478539200974,-0.125,,,,1.5337426861
1740465478546904260,-0.125,,,,1.5345130147
1740465478554607546,-0.125,,,,1.5352833433
1740465478562310832,-0.125,,,,1.5360536719
1740465478570014118,-0.128,,,,1.5368240005
1740465478577717404,-0.13,,,,1.5375943291
1740465478585420690,-0.13,,,,1.5383646577
1740465478593123976,-0.133,,,,1.5391349863
1740465478600827262,-0.133,,,,1.5399053149
1740465478608530548,-0.13,,,,1.5406756435
1740465478616233834,-0.125,,,,1.5414459721
1740465478623937120,-0.125,,,,1.5422163007
1740465478631640406,-0.128,,,,1.5429866293
1740465478639343692,-0.128,,,,1.5437569579
1740465478647046978,-0.128,,,,1.5445272865
1740465478654750264,-0.128,,,,1.5452976151
1740465478662453550,-0.125,,,,1.5460679437
1740465478670156836,-0.123,,,,1.5468382723
1740465478677860122,-0.123,,,,1.5476086009
1740465478685563408,-0.123,,,,1.5483789295
1740465478693266694,-0.125,,,,1.5491492581
1740465478700969980,-0.125,,,,1.5499195867
1740465478708673266,-0.123,,,,1.5506899153
1740465478716376552,-0.123,,,,1.5514602439
1740465478724079838,-0.121,,,,1.5522305725
1740465478731783124,-0.118,,,,1.5530009011
1740465478739486410,-0.118,,,,1.5537712297
1740465478747189696,-0.118,,,,1.5545415583
1740465478754892982,-0.118,,,,1.5553118869
1740465478762596268,-0.118,,,,1.5560822155
1740465478770299554,-0.121,,,,1.5568525441
1740465478778002840,-0.118,,,,1.5576228727
1740465478785706126,-0.118,,,,1.5583932013
1740465478793409412,-0.118,,,,1.5591635299
1740465478801112698,-0.113,,,,1.5599338585
1740465478808815984,-0.111,,,,1.5607041871
1740465478816519270,-0.111,,,,1.5614745157
1740465478824222556,-0.111,,,,1.5622448443
1740465478831925842,-0.113,,,,1.5630151729
1740465478839629128,-0.116,,,,1.5637855015
1740465478847332414,-0.111,,,,1.5645558301
1740465478855035700,-0.111,,,,1.5653261587
1740465478862738986,-0.116,,,,1.5660964873
1740465478870442272,-0.111,,,,1.5668668159
1740465478878145558,-0.101,,,,1.5676371445
1740465478885848844,-0.094,,,,1.5684074731
1740465478893552130,-0.089,,,,1.5691778017
1740465478901255416,-0.089,,,,1.5699481303
1740465478908958702,-0.101,,,,1.5707184589
1740465478916661988,-0.116,,,,1.5714887875
1740465478924365274,-0.118,,,,1.5722591161
1740465478932068560,-0.113,,,,1.5730294447
1740465478939771846,-0.116,,,,1.5737997733
1740465478947475181,-0.118,,,,1.5745701068
1740465478955178467,-0.113,,,,1.5753404354
1740465478962881753,-0.111,,,,1.576110764
1740465478970585039,-0.111,,,,1.5768810926
1740465478978288325,-0.108,,,,1.5776514212
1740465478985991611,-0.106,,,,1.5784217498
1740465478993694897,-0.106,,,,1.5791920784
1740465479001398183,-0.104,,,,1.579962407
1740465479009101469,-0.108,,,,1.5807327356
1740465479016804755,-0.125,,,,1.5815030642
1740465479024508041,-0.096,,,,1.5822733928
1740465479032211327,0.079,,,,1.5830437214
1740465479039914613,0.348,,,,1.58381405
1740465479047617899,0.5640000000000001,,,,1.5845843786
1740465479055321185,0.74,,,,1.5853547072
1740465479063024471,0.646,,,,1.5861250358
1740465479070727757,-0.031,,,,1.5868953644
1740465479078431043,-0.585,,,,1.587665693
1740465479086134329,-0.387,,,,1.5884360216
1740465479093837615,-0.116,,,,1.5892063502
1740465479101540901,-0.184,,,,1.5899766788
1740465479109244187,-0.205,,,,1.5907470074
1740465479116947473,-0.13,,,,1.591517336
1740465479124650759,-0.133,,,,1.5922876646
1740465479132354045,-0.147,,,,1.5930579932
1740465479140057331,-0.116,,,,1.5938283218
1740465479147760617,-0.101,,,,1.5945986504
1740465479155463903,-0.108,,,,1.595368979
1740465479163167189,-0.096,,,,1.5961393076
1740465479170870475,-0.082,,,,1.5969096362
1740465479178573761,-0.077,,,,1.5976799648
1740465479186277047,-0.072,,,,1.5984502934
1740465479193980333,-0.065,,,,1.599220622
1740465479201683619,-0.058,,,,1.5999909506
1740465479209386905,-0.05,,,,1.6007612792
1740465479217090191,-0.041,,,,1.6015316078
1740465479224793477,-0.033,,,,1.6023019364
1740465479232496763,-0.029,,,,1.603072265
1740465479240200049,-0.016,,,,1.6038425936
1740465479247903335,-0.009,,,,1.6046129222
1740465479255606621,-0.002,,,,1.6053832508
1740465479263309907,0.009,,,,1.6061535794
1740465479271013193,0.021,,,,1.606923908
1740465479278716479,0.033,,,,1.6076942366
1740465479286419765,0.048,,,,1.6084645652
1740465479294123051,0.06,,,,1.6092348938
1740465479301826337,0.067,,,,1.6100052224
1740465479309529623,0.072,,,,1.610775551
1740465479317232909,0.077,,,,1.6115458796
1740465479324936195,0.077,,,,1.6123162082
1740465479332639481,0.077,,,,1.6130865368
1740465479340342767,0.072,,,,1.6138568654
1740465479348046053,0.06,,,,1.614627194
1740465479355749339,0.036,,,,1.6153975226
1740465479363452625,0.004,,,,1.6161678512
1740465479371155911,-0.038,,,,1.6169381798
1740465479378859197,-0.082,,,,1.6177085084
1740465479386562483,-0.121,,,,1.618478837
1740465479394265769,-0.152,,,,1.6192491656
1740465479401969055,-0.174,,,,1.6200194942
1740465479409672341,-0.184,,,,1.6207898228
1740465479417375627,-0.184,,,,1.6215601514
1740465479425078913,-0.181,,,,1.62233048
1740465479432782199,-0.176,,,,1.6231008086
1740465479440485485,-0.169,,,,1.6238711372
1740465479448188771,-0.162,,,,1.6246414658
1740465479455892057,-0.15,,,,1.6254117944
1740465479463595343,-0.138,,,,1.626182123
1740465479471298629,-0.128,,,,1.6269524516
1740465479479001915,-0.118,,,,1.6277227802
1740465479486705201,-0.111,,,,1.6284931088
1740465479494408487,-0.104,,,,1.6292634374
1740465479502111773,-0.096,,,,1.630033766
1740465479509815108,-0.092,60.0,1051.0,,1.6308040995
1740465479517518394,-0.087,,,,1.6315744281
1740465479525221680,-0.087,,,,1.6323447567
1740465479532924966,-0.084,,,,1.6331150853
1740465479540628252,-0.082,,,,1.6338854139
1740465479548331538,-0.079,,,,1.6346557425
1740465479556034824,-0.082,,,,1.6354260711
1740465479563738110,-0.084,,,,1.6361963997
1740465479571441396,-0.084,,,,1.6369667283
1740465479579144682,-0.087,,,,1.6377370569
1740465479586847968,-0.089,,,,1.6385073855
1740465479594551254,-0.089,,,,1.6392777141
1740465479602254540,-0.089,,,,1.6400480427
1740465479609957826,-0.092,,,,1.6408183713
1740465479617661112,-0.094,,,,1.6415886999
1740465479625364398,-0.096,,,,1.6423590285
1740465479633067684,-0.094,,,,1.6431293571
1740465479640770970,-0.092,,,,1.6438996857
1740465479648474256,-0.092,,,,1.6446700143
1740465479656177542,-0.092,,,,1.6454403429
1740465479663880828,-0.089,,,,1.6462106715
1740465479671584114,-0.087,,,,1.6469810001
1740465479679287400,-0.087,,,,1.6477513287
1740465479686990686,-0.084,,,,1.6485216573
1740465479694693972,-0.084,,,,1.6492919859
1740465479702397258,-0.084,,,,1.6500623145
1740465479710100544,-0.082,,,,1.6508326431
1740465479717803830,-0.082,,,,1.6516029717
1740465479725507116,-0.082,,,,1.6523733003
1740465479733210402,-0.079,,,,1.6531436289
1740465479740913688,-0.079,,,,1.6539139575
1740465479748616974,-0.079,,,,1.6546842861
1740465479756320260,-0.079,,,,1.6554546147
1740465479764023546,-0.077,,,,1.6562249433
1740465479771726832,-0.077,,,,1.6569952719
1740465479779430118,-0.075,,,,1.6577656005
1740465479787133404,-0.075,,,,1.6585359291
1740465479794836690,-0.075,,,,1.6593062577
1740465479802539976,-0.075,,,,1.6600765863
1740465479810243262,-0.072,,,,1.6608469149
1740465479817946548,-0.072,,,,1.6616172435
1740465479825649834,-0.075,,,,1.6623875721
1740465479833353120,-0.075,,,,1.6631579007
1740465479841056406,-0.072,,,,1.6639282293
1740465479848759692,-0.07,,,,1.6646985579
1740465479856462978,-0.07,,,,1.6654688865
1740465479864166264,-0.07,,,,1.6662392151
1740465479871869550,-0.067,,,,1.6670095437
1740465479879572836,-0.067,,,,1.6677798723
1740465479887276122,-0.072,,,,1.6685502009
1740465479894979408,-0.075,,,,1.6693205295
1740465479902682694,-0.067,,,,1.6700908581
1740465479910385980,-0.058,,,,1.6708611867
1740465479918089266,-0.05,,,,1.6716315153
1740465479925792552,-0.046,,,,1.6724018439
1740465479933495838,-0.046,,,,1.6731721725
1740465479941199124,-0.06,,,,1.6739425011
1740465479948902410,-0.075,,,,1.6747128297
1740465479956605696,-0.072,,,,1.6754831583
1740465479964308982,-0.065,,,,1.6762534869
1740465479972012268,-0.067,,,,1.6770238155
1740465479979715554,-0.07,,,,1.6777941441
1740465479987418840,-0.067,,,,1.6785644727
1740465479995122126,-0.067,,,,1.6793348013
1740465480002825412,-0.07,,,,1.6801051299
1740465480010528698,-0.065,,,,1.6808754585
1740465480018231984,-0.062,,,,1.6816457871
1740465480025935270,-0.065,,,,1.6824161157
1740465480033638556,-0.065,,,,1.6831864443
1740465480041341842,-0.077,,,,1.6839567729
1740465480049045128,-0.089,,,,1.6847271015
1740465480056748414,-0.024,,,,1.6854974301
1740465480064451700,0.174,,,,1.6862677587
1740465480072155031,0.397,,,,1.6870380918
1740465480079858317,0.59,,,,1.6878084204
1740465480087561603,0.794,,,,1.688578749
1740465480095264889,0.583,,,,1.6893490776
1740465480102968175,-0.162,,,,1.6901194062
1740465480110671461,-0.518,,,,1.6908897348
1740465480118374747,-0.225,,,,1.6916600634
1740465480126078033,-0.072,,,,1.692430392
1740465480133781319,-0.174,,,,1.6932007206
1740465480141484605,-0.162,,,,1.6939710492
1740465480149187891,-0.101,,,,1.6947413778
1740465480156891177,-0.121,,,,1.6955117064
1740465480164594463,-0.121,,,,1.696282035
1740465480172297749,-0.092,,,,1.6970523636
1740465480180001035,-0.089,,,,1.6978226922
1740465480187704321,-0.089,,,,1.6985930208
1740465480195407607,-0.077,,,,1.6993633494
1740465480203110893,-0.067,,,,1.700133678
1740465480210814179,-0.062,,,,1.7009040066
1740465480218517465,-0.058,,,,1.7016743352
1740465480226220751,-0.053,,,,1.7024446638
1740465480233924037,-0.048,,,,1.7032149924
1740465480241627323,-0.038,,,,1.703985321
1740465480249330609,-0.031,,,,1.7047556496
1740465480257033895,-0.026,,,,1.7055259782
1740465480264737181,-0.019,,,,1.7062963068
1740465480272440467,-0.009,,,,1.7070666354
1740465480280143753,-0.002,,,,1.707836964
1740465480287847039,0.004,,,,1.7086072926
1740465480295550325,0.014,,,,1.7093776212
1740465480303253611,0.024,,,,1.7101479498
1740465480310956897,0.036,,,,1.7109182784
1740465480318660183,0.048,,,,1.711688607
1740465480326363469,0.058,,,,1.7124589356
1740465480334066755,0.065,,,,1.7132292642
1740465480341770041,0.072,,,,1.7139995928
1740465480349473327,0.075,,,,1.7147699214
1740465480357176613,0.075,,,,1.71554025
1740465480364879899,0.07,,,,1.7163105786
1740465480372583185,0.062,,,,1.7170809072
1740465480380286471,0.05,,,,1.7178512358
1740465480387989757,0.029,,,,1.7186215644
1740465480395693043,-0.007,,,,1.719391893
1740465480403396329,-0.048,,,,1.7201622216
1740465480411099615,-0.087,,,,1.7209325502
1740465480418802901,-0.123,,,,1.7217028788
1740465480426506187,-0.152,,,,1.7224732074
1740465480434209473,-0.167,,,,1.723243536
1740465480441912759,-0.176,,,,1.7240138646
1740465480449616045,-0.176,,,,1.7247841932
1740465480457319331,-0.169,,,,1.7255545218
1740465480465022617,-0.164,,,,1.7263248504
1740465480472725903,-0.157,,,,1.727095179
1740465480480429189,-0.147,,,,1.7278655076
1740465480488132475,-0.14,,,,1.7286358362
1740465480495835761,-0.135,,,,1.7294061648
1740465480503539047,-0.13,,,,1.7301764934
1740465480511242333,-0.123,,,,1.730946822
1740465480518945619,-0.116,,,,1.7317171506
1740465480526648905,-0.108,,,,1.7324874792
1740465480534352191,-0.104,,,,1.7332578078
1740465480542055477,-0.099,,,,1.7340281364
1740465480549758763,-0.096,,,,1.734798465
1740465480557462049,-0.094,,,,1.7355687936
1740465480565165335,-0.092,,,,1.7363391222
1740465480572868621,-0.092,,,,1.7371094508
1740465480580571907,-0.089,,,,1.7378797794
1740465480588275193,-0.089,,,,1.738650108
1740465480595978479,-0.089,,,,1.7394204366
1740465480603681765,-0.089,,,,1.7401907652
1740465480611385051,-0.089,,,,1.7409610938
1740465480619088337,-0.092,,,,1.7417314224
1740465480626791623,-0.094,,,,1.742501751
1740465480634494962,-0.092,60.0,1057.0,,1.7432720849
1740465480642198248,-0.094,,,,1.7440424135
1740465480649901534,-0.094,,,,1.7448127421
1740465480657604820,-0.094,,,,1.7455830707
1740465480665308106,-0.094,,,,1.7463533993
1740465480673011392,-0.096,,,,1.7471237279
1740465480680714678,-0.096,,,,1.7478940565
1740465480688417964,-0.094,,,,1.7486643851
1740465480696121250,-0.092,,,,1.7494347137
1740465480703824536,-0.092,,,,1.7502050423
1740465480711527822,-0.092,,,,1.7509753709
1740465480719231108,-0.089,,,,1.7517456995
1740465480726934394,-0.087,,,,1.7525160281
1740465480734637680,-0.087,,,,1.7532863567
1740465480742340966,-0.087,,,,1.7540566853
1740465480750044252,-0.084,,,,1.7548270139
1740465480757747538,-0.082,,,,1.7555973425
1740465480765450824,-0.082,,,,1.7563676711
1740465480773154110,-0.082,,,,1.7571379997
1740465480780857396,-0.082,,,,1.7579083283
1740465480788560682,-0.082,,,,1.7586786569
1740465480796263968,-0.082,,,,1.7594489855
1740465480803967254,-0.082,,,,1.7602193141
1740465480811670540,-0.084,,,,1.7609896427
1740465480819373826,-0.082,,,,1.7617599713
1740465480827077112,-0.082,,,,1.7625302999
1740465480834780398,-0.082,,,,1.7633006285
1740465480842483684,-0.082,,,,1.7640709571
1740465480850186970,-0.079,,,,1.7648412857
1740465480857890256,-0.079,,,,1.7656116143
1740465480865593542,-0.079,,,,1.7663819429
1740465480873296828,-0.079,,,,1.7671522715
1740465480881000114,-0.079,,,,1.7679226001
1740465480888703400,-0.079,,,,1.7686929287
1740465480896406686,-0.079,,,,1.7694632573
1740465480904109972,-0.079,,,,1.7702335859
1740465480911813258,-0.079,,,,1.7710039145
1740465480919516544,-0.079,,,,1.7717742431
1740465480927219830,-0.079,,,,1.7725445717
1740465480934923116,-0.079,,,,1.7733149003
1740465480942626402,-0.077,,,,1.7740852289
1740465480950329688,-0.077,,,,1.7748555575
1740465480958032974,-0.079,,,,1.7756258861
1740465480965736260,-0.082,,,,1.7763962147
1740465480973439546,-0.079,,,,1.7771665433
1740465480981142832,-0.072,,,,1.7779368719
1740465480988846118,-0.065,,,,1.7787072005
1740465480996549404,-0.06,,,,1.7794775291
1740465481004252690,-0.055,,,,1.7802478577
1740465481011955976,-0.062,,,,1.7810181863
1740465481019659262,-0.079,,,,1.7817885149
1740465481027362548,-0.087,,,,1.7825588435
1740465481035065834,-0.082,,,,1.7833291721
1740465481042769120,-0.082,,,,1.7840995007
1740465481050472406,-0.084,,,,1.7848698293
1740465481058175692,-0.084,,,,1.7856401579
1740465481065878978,-0.082,,,,1.7864104865
1740465481073582264,-0.084,,,,1.7871808151
1740465481081285550,-0.084,,,,1.7879511437
1740465481088988836,-0.084,,,,1.7887214723
1740465481096692122,-0.084,,,,1.7894918009
1740465481104395408,-0.084,,,,1.7902621295
1740465481112098694,-0.087,,,,1.7910324581
1740465481119801980,-0.101,,,,1.7918027867
1740465481127505266,-0.092,,,,1.7925731153
1740465481135208552,0.031,,,,1.7933434439
1740465481142911838,0.249,,,,1.7941137725
1740465481150615124,0.44,,,,1.7948841011
1740465481158318410,0.641,,,,1.7956544297
1740465481166021696,0.714,,,,1.7964247583
1740465481173724982,0.22,,,,1.7971950869
1740465481181428268,-0.43,,,,1.7979654155
1740465481189131554,-0.428,,,,1.7987357441
1740465481196834889,-0.128,59.0,1030.0,,1.7995060776
1740465481204538384,-0.128,,,,1.8002764271
1740465481212241879,-0.198,,,,1.8010467766
1740465481219945374,-0.145,,,,1.8018171261
1740465481227648869,-0.125,,,,1.8025874756
1740465481235352364,-0.147,,,,1.8033578251
1740465481243055859,-0.125,,,,1.8041281746
1740465481250759354,-0.106,,,,1.8048985241
1740465481258462849,-0.106,,,,1.8056688736
1740465481266166344,-0.099,,,,1.8064392231
1740465481273869839,-0.084,,,,1.8072095726
1740465481281573334,-0.079,,,,1.8079799221
1740465481289276829,-0.077,,,,1.8087502716
1740465481296980324,-0.07,,,,1.8095206211
1740465481304683819,-0.062,,,,1.8102909706
1740465481312387314,-0.058,,,,1.8110613201
1740465481320090809,-0.053,,,,1.8118316696
1740465481327794304,-0.046,,,,1.8126020191
1740465481335497799,-0.041,,,,1.8133723686
1740465481343201294,-0.033,,,,1.8141427181
1740465481350904789,-0.026,,,,1.8149130676
1740465481358608284,-0.016,,,,1.8156834171
1740465481366311779,-0.009,,,,1.8164537666
1740465481374015274,0.0,,,,1.8172241161
1740465481381718769,0.012,,,,1.8179944656
1740465481389422264,0.021,,,,1.8187648151
1740465481397125759,0.029,,,,1.8195351646
1740465481404829254,0.036,,,,1.8203055141
1740465481412532749,0.046,,,,1.8210758636
1740465481420236244,0.05,,,,1.8218462131
1740465481427939739,0.046,,,,1.8226165626
1740465481435643234,0.046,,,,1.8233869121
1740465481443346729,0.046,,,,1.8241572616
1740465481451050224,0.041,,,,1.8249276111
1740465481458753719,0.024,,,,1.8256979606
1740465481466457214,0.0,,,,1.8264683101
1740465481474160709,-0.036,,,,1.8272386596
1740465481481864204,-0.079,,,,1.8280090091
1740465481489567699,-0.116,,,,1.8287793586
1740465481497271194,-0.147,,,,1.8295497081
1740465481504974689,-0.174,,,,1.8303200576
1740465481512678184,-0.186,,,,1.8310904071
1740465481520381679,-0.191,,,,1.8318607566
1740465481528085174,-0.191,,,,1.8326311061
1740465481535788669,-0.188,,,,1.8334014556
1740465481543492164,-0.181,,,,1.8341718051
1740465481551195659,-0.174,,,,1.8349421546
1740465481558899154,-0.169,,,,1.8357125041
1740465481566602649,-0.159,,,,1.8364828536
1740465481574306144,-0.15,,,,1.8372532031
1740465481582009639,-0.145,,,,1.8380235526
1740465481589713134,-0.14,,,,1.8387939021
1740465481597416629,-0.133,,,,1.8395642516
1740465481605120124,-0.125,,,,1.8403346011
1740465481612823619,-0.123,,,,1.8411049506
1740465481620527114,-0.118,,,,1.8418753001
1740465481628230609,-0.118,,,,1.8426456496
1740465481635934104,-0.113,,,,1.8434159991
1740465481643637599,-0.113,,,,1.8441863486
1740465481651341094,-0.116,,,,1.8449566981
1740465481659044589,-0.113,,,,1.8457270476
1740465481666748084,-0.111,,,,1.8464973971
1740465481674451579,-0.116,,,,1.8472677466
1740465481682155074,-0.121,,,,1.8480380961
1740465481689858569,-0.121,,,,1.8488084456
1740465481697562064,-0.121,,,,1.8495787951
1740465481705265559,-0.125,,,,1.8503491446
1740465481712969054,-0.125,,,,1.8511194941
1740465481720672549,-0.125,,,,1.8518898436
1740465481728376044,-0.123,,,,1.8526601931
1740465481736079539,-0.121,,,,1.8534305426
1740465481743783034,-0.123,,,,1.8542008921
1740465481751486529,-0.125,,,,1.8549712416
1740465481759190073,-0.123,,,,1.855741596
1740465481766893289,-0.123,,,,1.8565119176
1740465481774596505,-0.123,,,,1.8572822392
1740465481782299721,-0.121,,,,1.8580525608
1740465481790002937,-0.121,,,,1.8588228824
1740465481797706153,-0.123,,,,1.859593204
1740465481805409369,-0.121,,,,1.8603635256
1740465481813112585,-0.113,,,,1.8611338472
1740465481820815801,-0.113,,,,1.8619041688
1740465481828519017,-0.116,,,,1.8626744904
1740465481836222233,-0.118,,,,1.863444812
1740465481843925449,-0.116,,,,1.8642151336
1740465481851628665,-0.113,,,,1.8649854552
1740465481859331881,-0.113,,,,1.8657557768
1740465481867035097,-0.113,,,,1.8665260984
1740465481874738313,-0.113,,,,1.86729642
1740465481882441529,-0.113,,,,1.8680667416
1740465481890144745,-0.116,,,,1.8688370632
1740465481897847961,-0.116,,,,1.8696073848
1740465481905551177,-0.113,,,,1.8703777064
1740465481913254393,-0.111,,,,1.871148028
1740465481920957609,-0.113,,,,1.8719183496
1740465481928660825,-0.113,,,,1.8726886712
1740465481936364041,-0.111,,,,1.8734589928
1740465481944067257,-0.113,,,,1.8742293144
1740465481951770473,-0.116,,,,1.874999636
1740465481959473689,-0.113,,,,1.8757699576
1740465481967176905,-0.111,,,,1.8765402792
1740465481974880121,-0.111,,,,1.8773106008
1740465481982583337,-0.108,,,,1.8780809224
1740465481990286553,-0.106,,,,1.878851244
1740465481997989769,-0.106,,,,1.8796215656
1740465482005692985,-0.108,,,,1.8803918872
1740465482013396201,-0.113,,,,1.8811622088
1740465482021099417,-0.106,,,,1.8819325304
1740465482028802633,-0.096,,,,1.882702852
1740465482036505849,-0.092,,,,1.8834731736
1740465482044209065,-0.087,,,,1.8842434952
1740465482051912281,-0.087,,,,1.8850138168
1740465482059615497,-0.101,,,,1.8857841384
1740465482067318713,-0.113,,,,1.88655446
1740465482075021929,-0.113,,,,1.8873247816
1740465482082725145,-0.111,,,,1.8880951032
1740465482090428361,-0.113,,,,1.8888654248
1740465482098131577,-0.113,,,,1.8896357464
1740465482105834793,-0.113,,,,1.890406068
1740465482113538009,-0.111,,,,1.8911763896
1740465482121241225,-0.111,,,,1.8919467112
1740465482128944441,-0.111,,,,1.8927170328
1740465482136647657,-0.108,,,,1.8934873544
1740465482144350873,-0.108,,,,1.894257676
1740465482152054089,-0.106,,,,1.8950279976
1740465482159757305,-0.113,,,,1.8957983192
1740465482167460521,-0.128,,,,1.8965686408
1740465482175163737,-0.089,,,,1.8973389624
1740465482182866953,0.087,,,,1.898109284
1740465482190570169,0.338,,,,1.8988796056
1740465482198273385,0.542,,,,1.8996499272
1740465482205976601,0.709,,,,1.9004202488
1740465482213679817,0.5710000000000001,,,,1.9011905704
1740465482221383033,-0.118,,,,1.901960892
1740465482229086249,-0.588,,,,1.9027312136
1740465482236789465,-0.353,,,,1.9035015352
1740465482244492681,-0.128,,,,1.9042718568
1740465482252195897,-0.21,,,,1.9050421784
1740465482259899113,-0.217,,,,1.9058125
1740465482267602329,-0.147,,,,1.9065828216
1740465482275305545,-0.154,,,,1.9073531432
1740465482283008761,-0.162,,,,1.9081234648
1740465482290711977,-0.135,,,,1.9088937864
1740465482298415193,-0.125,,,,1.909664108
1740465482306118409,-0.125,,,,1.9104344296
1740465482313821625,-0.113,,,,1.9112047512
1740465482321524913,-0.106,59.0,1030.0,,1.91197508
1740465482329228129,-0.106,,,,1.9127454016
1740465482336931345,-0.099,,,,1.9135157232
1740465482344634561,-0.089,,,,1.9142860448
1740465482352337777,-0.082,,,,1.9150563664
1740465482360040993,-0.075,,,,1.915826688
1740465482367744209,-0.07,,,,1.9165970096
1740465482375447425,-0.06,,,,1.9173673312
1740465482383150641,-0.053,,,,1.9181376528
1740465482390853857,-0.046,,,,1.9189079744
1740465482398557073,-0.041,,,,1.919678296
1740465482406260289,-0.033,,,,1.9204486176
1740465482413963505,-0.024,,,,1.9212189392
1740465482421666721,-0.012,,,,1.9219892608
1740465482429369937,0.002,,,,1.9227595824
1740465482437073153,0.019,,,,1.923529904
1740465482444776369,0.026,,,,1.9243002256
1740465482452479585,0.033,,,,1.9250705472
1740465482460182801,0.038,,,,1.9258408688
1740465482467886017,0.043,,,,1.9266111904
1740465482475589233,0.043,,,,1.927381512
1740465482483292449,0.041,,,,1.9281518336
1740465482490995665,0.033,,,,1.9289221552
1740465482498698881,0.026,,,,1.9296924768
1740465482506402097,0.002,,,,1.9304627984
1740465482514105313,-0.033,,,,1.93123312
1740465482521808529,-0.077,,,,1.9320034416
1740465482529511745,-0.121,,,,1.9327737632
1740465482537214961,-0.159,,,,1.9335440848
1740465482544918177,-0.193,,,,1.9343144064
1740465482552621393,-0.215,,,,1.935084728
1740465482560324609,-0.225,,,,1.9358550496
1740465482568027825,-0.227,,,,1.9366253712
1740465482575731041,-0.227,,,,1.9373956928
1740465482583434257,-0.22,,,,1.9381660144
1740465482591137473,-0.208,,,,1.938936336
1740465482598840689,-0.2,,,,1.9397066576
1740465482606543905,-0.193,,,,1.9404769792
1740465482614247121,-0.184,,,,1.9412473008
1740465482621950337,-0.174,,,,1.9420176224
1740465482629653553,-0.164,,,,1.942787944
1740465482637356769,-0.154,,,,1.9435582656
1740465482645059985,-0.147,,,,1.9443285872
1740465482652763201,-0.14,,,,1.9450989088
1740465482660466417,-0.133,,,,1.9458692304
1740465482668169633,-0.125,,,,1.946639552
1740465482675872849,-0.123,,,,1.9474098736
1740465482683576065,-0.123,,,,1.9481801952
1740465482691279281,-0.118,,,,1.9489505168
1740465482698982497,-0.116,,,,1.9497208384
1740465482706685713,-0.118,,,,1.95049116
1740465482714388929,-0.121,,,,1.9512614816
1740465482722092145,-0.123,,,,1.9520318032
1740465482729795361,-0.123,,,,1.9528021248
1740465482737498577,-0.125,,,,1.9535724464
1740465482745201793,-0.128,,,,1.954342768
1740465482752905009,-0.128,,,,1.9551130896
1740465482760608225,-0.128,,,,1.9558834112
1740465482768311441,-0.128,,,,1.9566537328
1740465482776014657,-0.125,,,,1.9574240544
1740465482783717873,-0.125,,,,1.958194376
1740465482791421089,-0.125,,,,1.9589646976
1740465482799124305,-0.121,,,,1.9597350192
1740465482806827521,-0.116,,,,1.9605053408
1740465482814530737,-0.116,,,,1.9612756624
1740465482822233953,-0.116,,,,1.962045984
1740465482829937169,-0.116,,,,1.9628163056
1740465482837640385,-0.113,,,,1.9635866272
1740465482845343601,-0.111,,,,1.9643569488
1740465482853046817,-0.108,,,,1.9651272704
1740465482860750033,-0.106,,,,1.965897592
1740465482868453249,-0.108,,,,1.9666679136
1740465482876156465,-0.108,,,,1.9674382352
1740465482883859753,-0.104,,,,1.968208564
1740465482891562969,-0.104,,,,1.9689788856
1740465482899266185,-0.106,,,,1.9697492072
1740465482906969401,-0.104,,,,1.9705195288
1740465482914672617,-0.101,,,,1.9712898504
1740465482922375833,-0.099,,,,1.972060172
1740465482930079049,-0.096,,,,1.9728304936
1740465482937782265,-0.096,,,,1.9736008152
1740465482945485481,-0.094,,,,1.9743711368
1740465482953188697,-0.089,,,,1.9751414584
1740465482960891913,-0.089,,,,1.97591178
1740465482968595129,-0.087,,,,1.9766821016
1740465482976298345,-0.082,,,,1.9774524232
1740465482984001561,-0.084,,,,1.9782227448
1740465482991704777,-0.089,,,,1.9789930664
1740465482999407993,-0.087,,,,1.979763388
1740465483007111209,-0.079,,,,1.9805337096
1740465483014814425,-0.07,,,,1.9813040312
1740465483022517641,-0.062,,,,1.9820743528
1740465483030220857,-0.058,,,,1.9828446744
1740465483037924073,-0.065,,,,1.983614996
1740465483045627289,-0.082,,,,1.9843853176
1740465483053330505,-0.089,,,,1.9851556392
1740465483061033721,-0.084,,,,1.9859259608
1740465483068736937,-0.079,,,,1.9866962824
1740465483076440153,-0.082,,,,1.987466604
1740465483084143369,-0.082,,,,1.9882369256
1740465483091846585,-0.079,,,,1.9890072472
1740465483099549801,-0.077,,,,1.9897775688
1740465483107253017,-0.077,,,,1.9905478904
1740465483114956233,-0.075,,,,1.991318212
1740465483122659449,-0.075,,,,1.9920885336
1740465483130362665,-0.072,,,,1.9928588552
1740465483138065881,-0.075,,,,1.9936291768
1740465483145769097,-0.087,,,,1.9943994984
1740465483153472313,-0.089,,,,1.99516982
1740465483161175529,0.012,,,,1.9959401416
1740465483168878745,0.254,,,,1.9967104632
1740465483176581961,0.491,,,,1.9974807848
1740465483184285177,0.6900000000000001,,,,1.9982511064
1740465483191988393,0.794,,,,1.999021428
1740465483199691609,0.346,,,,1.9997917496
1740465483207394825,-0.404,,,,2.0005620712
1740465483215098041,-0.501,,,,2.0013323928
1740465483222801257,-0.15,,,,2.0021027144
1740465483230504473,-0.104,,,,2.002873036
1740465483238207689,-0.191,,,,2.0036433576
1740465483245910905,-0.135,,,,2.0044136792
1740465483253614121,-0.101,,,,2.0051840008
1740465483261317337,-0.128,,,,2.0059543224
1740465483269020553,-0.108,,,,2.006724644
1740465483276723769,-0.087,,,,2.0074949656
1740465483284426985,-0.089,,,,2.0082652872
1740465483292130201,-0.079,,,,2.0090356088
1740465483299833417,-0.065,,,,2.0098059304
1740465483307536633,-0.062,,,,2.010576252
1740465483315239849,-0.058,,,,2.0113465736
1740465483322943065,-0.046,,,,2.0121168952
1740465483330646281,-0.041,,,,2.0128872168
1740465483338349497,-0.036,,,,2.0136575384
1740465483346052713,-0.029,,,,2.01442786
1740465483353755929,-0.021,,,,2.0151981816
1740465483361459145,-0.014,,,,2.0159685032
1740465483369162361,-0.004,,,,2.0167388248
1740465483376865577,0.0,,,,2.0175091464
1740465483384568793,0.007,,,,2.018279468
1740465483392272009,0.016,,,,2.0190497896
1740465483399975225,0.026,,,,2.0198201112
1740465483407678441,0.041,,,,2.0205904328
1740465483415381657,0.055,,,,2.0213607544
1740465483423084873,0.065,,,,2.022131076
1740465483430788089,0.077,,,,2.0229013976
1740465483438491305,0.087,,,,2.0236717192
1740465483446194593,0.092,59.0,1075.0,,2.024442048
1740465483453897879,0.092,,,,2.0252123766
1740465483461601165,0.089,,,,2.0259827052
1740465483469304451,0.087,,,,2.0267530338
1740465483477007737,0.079,,,,2.0275233624
1740465483484711023,0.058,,,,2.028293691
1740465483492414309,0.026,,,,2.0290640196
1740465483500117595,-0.016,,,,2.0298343482
1740465483507820881,-0.062,,,,2.0306046768
1740465483515524167,-0.101,,,,2.0313750054
1740465483523227453,-0.138,,,,2.032145334
1740465483530930739,-0.164,,,,2.0329156626
1740465483538634025,-0.174,,,,2.0336859912
1740465483546337311,-0.176,,,,2.0344563198
1740465483554040597,-0.174,,,,2.0352266484
1740465483561743883,-0.169,,,,2.035996977
1740465483569447169,-0.164,,,,2.0367673056
1740465483577150455,-0.154,,,,2.0375376342
1740465483584853741,-0.145,,,,2.0383079628
1740465483592557027,-0.135,,,,2.0390782914
1740465483600260313,-0.128,,,,2.03984862
1740465483607963599,-0.123,,,,2.0406189486
1740465483615666885,-0.116,,,,2.0413892772
1740465483623370171,-0.108,,,,2.0421596058
1740465483631073457,-0.101,,,,2.0429299344
1740465483638776743,-0.096,,,,2.043700263
1740465483646480029,-0.094,,,,2.0444705916
1740465483654183315,-0.089,,,,2.0452409202
1740465483661886601,-0.087,,,,2.0460112488
1740465483669589887,-0.082,,,,2.0467815774
1740465483677293173,-0.082,,,,2.047551906
1740465483684996459,-0.082,,,,2.0483222346
1740465483692699745,-0.084,,,,2.0490925632
1740465483700403031,-0.087,,,,2.0498628918
1740465483708106317,-0.089,,,,2.0506332204
1740465483715809603,-0.089,,,,2.051403549
1740465483723512889,-0.092,,,,2.0521738776
1740465483731216175,-0.092,,,,2.0529442062
1740465483738919461,-0.092,,,,2.0537145348
1740465483746622747,-0.094,,,,2.0544848634
1740465483754326033,-0.094,,,,2.055255192
1740465483762029319,-0.094,,,,2.0560255206
1740465483769732605,-0.094,,,,2.0567958492
1740465483777435891,-0.096,,,,2.0575661778
1740465483785139177,-0.094,,,,2.0583365064
1740465483792842463,-0.089,,,,2.059106835
1740465483800545749,-0.092,,,,2.0598771636
1740465483808249035,-0.092,,,,2.0606474922
1740465483815952321,-0.089,,,,2.0614178208
1740465483823655607,-0.089,,,,2.0621881494
1740465483831358893,-0.089,,,,2.062958478
1740465483839062179,-0.087,,,,2.0637288066
1740465483846765465,-0.084,,,,2.0644991352
1740465483854468751,-0.084,,,,2.0652694638
1740465483862172037,-0.084,,,,2.0660397924
1740465483869875323,-0.084,,,,2.066810121
1740465483877578609,-0.082,,,,2.0675804496
1740465483885281895,-0.082,,,,2.0683507782
1740465483892985181,-0.079,,,,2.0691211068
1740465483900688467,-0.084,,,,2.0698914354
1740465483908391753,-0.084,,,,2.070661764
1740465483916095039,-0.079,,,,2.0714320926
1740465483923798325,-0.079,,,,2.0722024212
1740465483931501611,-0.079,,,,2.0729727498
1740465483939204897,-0.077,,,,2.0737430784
1740465483946908183,-0.077,,,,2.074513407
1740465483954611469,-0.079,,,,2.0752837356
1740465483962314755,-0.079,,,,2.0760540642
1740465483970018041,-0.077,,,,2.0768243928
1740465483977721327,-0.075,,,,2.0775947214
1740465483985424613,-0.075,,,,2.07836505
1740465483993127899,-0.075,,,,2.0791353786
1740465484000831185,-0.075,,,,2.0799057072
1740465484008534524,-0.077,,,,2.0806760411
1740465484016237810,-0.077,,,,2.0814463697
1740465484023941096,-0.072,,,,2.0822166983
1740465484031644382,-0.072,,,,2.0829870269
1740465484039347668,-0.077,,,,2.0837573555
1740465484047050954,-0.082,,,,2.0845276841
1740465484054754240,-0.077,,,,2.0852980127
1740465484062457526,-0.07,,,,2.0860683413
1740465484070160812,-0.062,,,,2.0868386699
1740465484077864098,-0.055,,,,2.0876089985
1740465484085567384,-0.053,,,,2.0883793271
1740465484093270670,-0.062,,,,2.0891496557
1740465484100973956,-0.077,,,,2.0899199843
1740465484108677242,-0.082,,,,2.0906903129
1740465484116380528,-0.075,,,,2.0914606415
1740465484124083814,-0.072,,,,2.0922309701
1740465484131787100,-0.077,,,,2.0930012987
1740465484139490386,-0.075,,,,2.0937716273
1740465484147193672,-0.072,,,,2.0945419559
1740465484154896958,-0.075,,,,2.0953122845
1740465484162600244,-0.075,,,,2.0960826131
1740465484170303530,-0.075,,,,2.0968529417
1740465484178006816,-0.075,,,,2.0976232703
1740465484185710102,-0.075,,,,2.0983935989
1740465484193413388,-0.079,,,,2.0991639275
1740465484201116674,-0.094,,,,2.0999342561
1740465484208819960,-0.079,,,,2.1007045847
1740465484216523246,0.055,,,,2.1014749133
1740465484224226532,0.278,,,,2.1022452419
1740465484231929818,0.469,,,,2.1030155705
1740465484239633104,0.687,,,,2.1037858991
1740465484247336390,0.745,,,,2.1045562277
1740465484255039676,0.205,,,,2.1053265563
1740465484262742962,-0.445,,,,2.1060968849
1740465484270446248,-0.399,,,,2.1068672135
1740465484278149534,-0.101,,,,2.1076375421
1740465484285852820,-0.128,,,,2.1084078707
1740465484293556106,-0.196,,,,2.1091781993
1740465484301259392,-0.135,,,,2.1099485279
1740465484308962678,-0.121,,,,2.1107188565
1740465484316665964,-0.14,,,,2.1114891851
1740465484324369250,-0.116,,,,2.1122595137
1740465484332072536,-0.099,,,,2.1130298423
1740465484339775822,-0.101,,,,2.1138001709
1740465484347479108,-0.092,,,,2.1145704995
1740465484355182394,-0.082,,,,2.1153408281
1740465484362885680,-0.079,,,,2.1161111567
1740465484370588966,-0.072,,,,2.1168814853
1740465484378292252,-0.065,,,,2.1176518139
1740465484385995538,-0.06,,,,2.1184221425
1740465484393698824,-0.055,,,,2.1191924711
1740465484401402110,-0.048,,,,2.1199627997
1740465484409105396,-0.043,,,,2.1207331283
1740465484416808682,-0.036,,,,2.1215034569
1740465484424511968,-0.029,,,,2.1222737855
1740465484432215254,-0.021,,,,2.1230441141
1740465484439918540,-0.014,,,,2.1238144427
1740465484447621826,-0.004,,,,2.1245847713
1740465484455325112,0.007,,,,2.1253550999
1740465484463028398,0.019,,,,2.1261254285
1740465484470731684,0.029,,,,2.1268957571
1740465484478434970,0.036,,,,2.1276660857
1740465484486138256,0.046,,,,2.1284364143
1740465484493841542,0.055,,,,2.1292067429
1740465484501544828,0.06,,,,2.1299770715
1740465484509248114,0.06,,,,2.1307474001
1740465484516951400,0.06,,,,2.1315177287
1740465484524654686,0.058,,,,2.1322880573
1740465484532357972,0.05,,,,2.1330583859
1740465484540061258,0.033,,,,2.1338287145
1740465484547764544,0.004,,,,2.1345990431
1740465484555467830,-0.031,,,,2.1353693717
1740465484563171116,-0.07,,,,2.1361397003
1740465484570874451,-0.108,59.0,1045.0,,2.1369100338
1740465484578577737,-0.142,,,,2.1376803624
1740465484586281023,-0.162,,,,2.138450691
1740465484593984309,-0.174,,,,2.1392210196
1740465484601687595,-0.176,,,,2.1399913482
1740465484609390881,-0.176,,,,2.1407616768
1740465484617094167,-0.171,,,,2.1415320054
1740465484624797453,-0.164,,,,2.142302334
1740465484632500739,-0.154,,,,2.1430726626
1740465484640204025,-0.145,,,,2.1438429912
1740465484647907311,-0.14,,,,2.1446133198
1740465484655610597,-0.135,,,,2.1453836484
1740465484663313883,-0.128,,,,2.146153977
1740465484671017169,-0.123,,,,2.1469243056
1740465484678720455,-0.116,,,,2.1476946342
1740465484686423741,-0.111,,,,2.1484649628
1740465484694127027,-0.108,,,,2.1492352914
1740465484701830313,-0.101,,,,2.15000562
1740465484709533599,-0.099,,,,2.1507759486
1740465484717236885,-0.096,,,,2.1515462772
1740465484724940171,-0.094,,,,2.1523166058
1740465484732643457,-0.092,,,,2.1530869344
1740465484740346743,-0.092,,,,2.153857263
1740465484748050029,-0.092,,,,2.1546275916
1740465484755753315,-0.092,,,,2.1553979202
1740465484763456601,-0.094,,,,2.1561682488
1740465484771159887,-0.094,,,,2.1569385774
1740465484778863173,-0.094,,,,2.157708906
1740465484786566459,-0.096,,,,2.1584792346
1740465484794269745,-0.099,,,,2.1592495632
1740465484801973031,-0.096,,,,2.1600198918
1740465484809676317,-0.096,,,,2.1607902204
1740465484817379603,-0.096,,,,2.161560549
