time,ecg,hr,rr,marker,norm_time
1740460275789454625,3.408,0.0,,,0.0
1740460275797162092,3.4250000000000003,,,,0.0007707467
1740460275804869559,3.378,,,,0.0015414934
1740460275812577026,3.408,,,,0.0023122401
1740460275820284493,3.408,,,,0.0030829868
1740460275827991960,3.341,,,,0.0038537335
1740460275835699427,3.393,,,,0.0046244802
1740460275843406894,3.339,,,,0.0053952269
1740460275851114361,3.307,,,,0.0061659736
1740460275858821828,3.329,,,,0.0069367203
1740460275866529295,3.231,,,,0.007707467
1740460275874236762,3.278,,,,0.0084782137
1740460275881944229,3.285,,,,0.0092489604
1740460275889651696,3.221,,,,0.0100197071
1740460275897359163,3.273,,,,0.0107904538
1740460275905066630,3.206,,,,0.0115612005
1740460275912774097,3.206,,,,0.0123319472
1740460275920481564,3.241,,,,0.0131026939
1740460275928189031,3.177,,,,0.0138734406
1740460275935896498,3.236,,,,0.0146441873
1740460275943603965,3.231,,,,0.015414934
1740460275951311432,3.197,,,,0.0161856807
1740460275959018899,3.241,,,,0.0169564274
1740460275966726366,3.201,,,,0.0177271741
1740460275974433833,3.197,,,,0.0184979208
1740460275982141300,3.201,,,,0.0192686675
1740460275989848767,3.17,,,,0.0200394142
1740460275997556234,3.1790000000000003,,,,0.0208101609
1740460276005263701,3.15,,,,0.0215809076
1740460276012971168,3.143,,,,0.0223516543
1740460276020678635,3.147,,,,0.023122401
1740460276028386102,3.111,,,,0.0238931477
1740460276036093569,3.111,,,,0.0246638944
1740460276043801036,3.091,,,,0.0254346411
1740460276051508503,3.074,,,,0.0262053878
1740460276059215970,3.076,,,,0.0269761345
1740460276066923437,3.049,,,,0.0277468812
1740460276074630904,3.035,,,,0.0285176279
1740460276082338371,3.022,,,,0.0292883746
1740460276090045838,3.074,,,,0.0300591213
1740460276097753305,3.192,,,,0.030829868
1740460276105460772,3.211,,,,0.0316006147
1740460276113168239,3.069,,,,0.0323713614
1740460276120875706,2.821,,,,0.0331421081
1740460276128583173,2.654,,,,0.0339128548
1740460276136290640,2.762,,,,0.0346836015
1740460276143998107,2.927,,,,0.0354543482
1740460276151705574,2.905,,,,0.0362250949
1740460276159413041,2.836,,,,0.0369958416
1740460276167120508,2.831,,,,0.0377665883
1740460276174827975,2.8040000000000003,,,,0.038537335
1740460276182535442,2.772,,,,0.0393080817
1740460276190242909,2.782,,,,0.0400788284
1740460276197950376,2.7840000000000003,,,,0.0408495751
1740460276205657843,2.779,,,,0.0416203218
1740460276213365310,2.772,,,,0.0423910685
1740460276221072777,2.76,,,,0.0431618152
1740460276228780244,2.782,,,,0.0439325619
1740460276236487711,2.799,,,,0.0447033086
1740460276244195178,2.7840000000000003,,,,0.0454740553
1740460276251902645,2.77,,,,0.046244802
1740460276259610112,2.755,,,,0.0470155487
1740460276267317579,2.75,,,,0.0477862954
1740460276275025046,2.748,,,,0.0485570421
1740460276282732513,2.716,,,,0.0493277888
1740460276290439980,2.686,,,,0.0500985355
1740460276298147447,2.676,,,,0.0508692822
1740460276305854914,2.6710000000000003,,,,0.0516400289
1740460276313562381,2.652,,,,0.0524107756
1740460276321269848,2.62,,,,0.0531815223
1740460276328977315,2.608,,,,0.053952269
1740460276336684782,2.595,,,,0.0547230157
1740460276344392249,2.566,,,,0.0554937624
1740460276352099732,2.537,,,,0.0562645107
1740460276359807617,2.5340000000000003,,,,0.0570352992
1740460276367515502,2.5460000000000003,,,,0.0578060877
1740460276375223387,2.524,,,,0.0585768762
1740460276382931272,2.497,,,,0.0593476647
1740460276390639157,2.514,,,,0.0601184532
1740460276398347042,2.522,,,,0.0608892417
1740460276406054927,2.502,,,,0.0616600302
1740460276413762812,2.492,,,,0.0624308187
1740460276421470697,2.514,,,,0.0632016072
1740460276429178582,2.551,,,,0.0639723957
1740460276436886467,2.551,,,,0.0647431842
1740460276444594352,2.532,,,,0.0655139727
1740460276452302237,2.529,,,,0.0662847612
1740460276460010122,2.514,,,,0.0670555497
1740460276467718007,2.46,,,,0.0678263382
1740460276475425892,2.402,,,,0.0685971267
1740460276483133777,2.387,,,,0.0693679152
1740460276490841662,2.436,,,,0.0701387037
1740460276498549547,2.492,,,,0.0709094922
1740460276506257432,2.478,,,,0.0716802807
1740460276513965317,2.448,,,,0.0724510692
1740460276521673202,2.483,,,,0.0732218577
1740460276529381087,2.497,,,,0.0739926462
1740460276537088972,2.456,,,,0.0747634347
1740460276544796857,2.441,,,,0.0755342232
1740460276552504742,2.414,,,,0.0763050117
1740460276560212627,2.36,,,,0.0770758002
1740460276567920512,2.367,,,,0.0778465887
1740460276575628397,2.353,,,,0.0786173772
1740460276583336282,2.316,,,,0.0793881657
1740460276591044167,2.308,,,,0.0801589542
1740460276598752052,2.2840000000000003,,,,0.0809297427
1740460276606459937,2.279,,,,0.0817005312
1740460276614167822,2.306,,,,0.0824713197
1740460276621875707,2.35,,,,0.0832421082
1740460276629583592,2.402,,,,0.0840128967
1740460276637291477,2.4090000000000003,,,,0.0847836852
1740460276644999362,2.4210000000000003,,,,0.0855544737
1740460276652707247,2.397,,,,0.0863252622
1740460276660415132,2.313,,,,0.0870960507
1740460276668123017,2.274,,,,0.0878668392
1740460276675830902,2.259,,,,0.0886376277
1740460276683538787,2.237,,,,0.0894084162
1740460276691246672,2.252,,,,0.0901792047
1740460276698954557,2.345,,,,0.0909499932
1740460276706662442,2.451,,,,0.0917207817
1740460276714370327,2.392,,,,0.0924915702
1740460276722078212,2.188,,,,0.0932623587
1740460276729786097,1.989,,,,0.0940331472
1740460276737493982,1.955,,,,0.0948039357
1740460276745201867,2.122,,,,0.0955747242
1740460276752909752,2.188,,,,0.0963455127
1740460276760617637,2.112,,,,0.0971163012
1740460276768325522,2.115,,,,0.0978870897
1740460276776033407,2.102,,,,0.0986578782
1740460276783741292,2.061,,,,0.0994286667
1740460276791449177,2.063,,,,0.1001994552
1740460276799157062,2.065,,,,0.1009702437
1740460276806864947,2.075,,,,0.1017410322
1740460276814572832,2.075,,,,0.1025118207
1740460276822280717,2.063,,,,0.1032826092
1740460276829988602,2.058,,,,0.1040533977
1740460276837696487,2.043,,,,0.1048241862
1740460276845404372,2.065,,,,0.1055949747
1740460276853112257,2.065,,,,0.1063657632
1740460276860820142,2.036,,,,0.1071365517
1740460276868528027,2.048,,,,0.1079073402
1740460276876235912,2.043,,,,0.1086781287
1740460276883943797,2.043,,,,0.1094489172
1740460276891651682,2.036,,,,0.1102197057
1740460276899359567,1.999,,,,0.1109904942
1740460276907067452,2.007,,,,0.1117612827
1740460276914775357,2.004,0.0,,,0.1125320732
1740460276922483172,1.975,,,,0.1133028547
1740460276930190987,1.967,,,,0.1140736362
1740460276937898802,1.953,,,,0.1148444177
1740460276945606617,1.96,,,,0.1156151992
1740460276953314432,1.957,,,,0.1163859807
1740460276961022247,1.938,,,,0.1171567622
1740460276968730062,1.933,,,,0.1179275437
1740460276976437877,1.913,,,,0.1186983252
1740460276984145692,1.921,,,,0.1194691067
1740460276991853507,1.93,,,,0.1202398882
1740460276999561322,1.896,,,,0.1210106697
1740460277007269137,1.896,,,,0.1217814512
1740460277014976952,1.894,,,,0.1225522327
1740460277022684767,1.877,,,,0.1233230142
1740460277030392582,1.894,,,,0.1240937957
1740460277038100397,1.908,,,,0.1248645772
1740460277045808212,1.911,,,,0.1256353587
1740460277053516027,1.896,,,,0.1264061402
1740460277061223842,1.913,,,,0.1271769217
1740460277068931657,1.95,,,,0.1279477032
1740460277076639472,1.948,,,,0.1287184847
1740460277084347287,1.95,,,,0.1294892662
1740460277092055102,1.93,,,,0.1302600477
1740460277099762917,1.889,,,,0.1310308292
1740460277107470732,1.916,,,,0.1318016107
1740460277115178547,1.928,,1811.0,,0.1325723922
1740460277122886362,1.904,,,,0.1333431737
1740460277130594177,1.901,,,,0.1341139552
1740460277138301992,1.877,,,,0.1348847367
1740460277146009807,1.877,,,,0.1356555182
1740460277153717622,1.904,,,,0.1364262997
1740460277161425437,1.881,,,,0.1371970812
1740460277169133252,1.859,,,,0.1379678627
1740460277176841067,1.872,,,,0.1387386442
1740460277184548882,1.894,,,,0.1395094257
1740460277192256697,1.881,,,,0.1402802072
1740460277199964512,1.847,,,,0.1410509887
1740460277207672327,1.85,,,,0.1418217702
1740460277215380142,1.84,,,,0.1425925517
1740460277223087957,1.825,,,,0.1433633332
1740460277230795772,1.823,,,,0.1441341147
1740460277238503587,1.8,,,,0.1449048962
1740460277246211402,1.805,,,,0.1456756777
1740460277253919217,1.813,,,,0.1464464592
1740460277261627032,1.805,,,,0.1472172407
1740460277269334847,1.803,,,,0.1479880222
1740460277277042662,1.786,,,,0.1487588037
1740460277284750477,1.781,,,,0.1495295852
1740460277292458292,1.818,,,,0.1503003667
1740460277300166107,1.901,,,,0.1510711482
1740460277307873922,1.96,,,,0.1518419297
1740460277315581737,1.864,,,,0.1526127112
1740460277323289552,1.663,,,,0.1533834927
1740460277330997367,1.526,,,,0.1541542742
1740460277338705182,1.607,,,,0.1549250557
1740460277346412997,1.8,,,,0.1556958372
1740460277354120812,1.788,,,,0.1564666187
1740460277361828627,1.7,,,,0.1572374002
1740460277369536442,1.732,,,,0.1580081817
1740460277377244257,1.717,,,,0.1587789632
1740460277384952072,1.673,,,,0.1595497447
1740460277392659887,1.675,,,,0.1603205262
1740460277400367702,1.673,,,,0.1610913077
1740460277408075517,1.68,,,,0.1618620892
1740460277415783332,1.678,,,,0.1626328707
1740460277423491147,1.661,,,,0.1634036522
1740460277431198962,1.658,,,,0.1641744337
1740460277438906777,1.675,,,,0.1649452152
1740460277446614592,1.705,,,,0.1657159967
1740460277454322407,1.695,,,,0.1664867782
1740460277462030222,1.68,,,,0.1672575597
1740460277469738037,1.695,,,,0.1680283412
1740460277477445894,1.702,,,,0.1687991269
1740460277485153430,1.712,,,,0.1695698805
1740460277492860966,1.685,,,,0.1703406341
1740460277500568502,1.641,,,,0.1711113877
1740460277508276038,1.646,,,,0.1718821413
1740460277515983574,1.634,,,,0.1726528949
1740460277523691110,1.624,,,,0.1734236485
1740460277531398646,1.609,,,,0.1741944021
1740460277539106182,1.577,,,,0.1749651557
1740460277546813718,1.594,,,,0.1757359093
1740460277554521254,1.582,,,,0.1765066629
1740460277562228790,1.548,,,,0.1772774165
1740460277569936326,1.56,,,,0.1780481701
1740460277577643862,1.553,,,,0.1788189237
1740460277585351398,1.545,,,,0.1795896773
1740460277593058934,1.535,,,,0.1803604309
1740460277600766470,1.523,,,,0.1811311845
1740460277608474006,1.521,,,,0.1819019381
1740460277616181542,1.489,,,,0.1826726917
1740460277623889078,1.494,,,,0.1834434453
1740460277631596614,1.496,,,,0.1842141989
1740460277639304150,1.467,,,,0.1849849525
1740460277647011686,1.499,,,,0.1857557061
1740460277654719222,1.489,,,,0.1865264597
1740460277662426758,1.454,,,,0.1872972133
1740460277670134294,1.462,,,,0.1880679669
1740460277677841830,1.452,,,,0.1888387205
1740460277685549366,1.469,,,,0.1896094741
1740460277693256902,1.442,,,,0.1903802277
1740460277700964438,1.388,,,,0.1911509813
1740460277708671974,1.403,,,,0.1919217349
1740460277716379510,1.405,,,,0.1926924885
1740460277724087046,1.425,,,,0.1934632421
1740460277731794582,1.401,,,,0.1942339957
1740460277739502118,1.349,,,,0.1950047493
1740460277747209654,1.391,,,,0.1957755029
1740460277754917190,1.349,,,,0.1965462565
1740460277762624726,1.349,,646.0,,0.1973170101
1740460277770332262,1.386,,,,0.1980877637
1740460277778039798,1.322,,,,0.1988585173
1740460277785747334,1.359,,,,0.1996292709
1740460277793454870,1.322,,,,0.2004000245
1740460277801162406,1.278,,,,0.2011707781
1740460277808869942,1.347,,,,0.2019415317
1740460277816577478,1.275,,,,0.2027122853
1740460277824285014,1.297,,,,0.2034830389
1740460277831992550,1.305,,,,0.2042537925
1740460277839700086,1.224,,,,0.2050245461
1740460277847407622,1.297,,,,0.2057952997
1740460277855115158,1.219,,,,0.2065660533
1740460277862822694,1.18,,,,0.2073368069
1740460277870530230,1.251,,,,0.2081075605
1740460277878237766,1.202,,,,0.2088783141
1740460277885945302,1.288,,,,0.2096490677
1740460277893652838,1.278,,,,0.2104198213
1740460277901360374,1.307,,,,0.2111905749
1740460277909067910,1.499,,,,0.2119613285
1740460277916775446,1.374,,,,0.2127320821
1740460277924482982,1.253,,,,0.2135028357
1740460277932190518,1.099,,,,0.2142735893
1740460277939898054,0.978,,,,0.2150443429
1740460277947605590,1.229,,,,0.2158150965
1740460277955313126,1.246,,,,0.2165858501
1740460277963020662,1.207,,,,0.2173566037
1740460277970728198,1.248,,,,0.2181273573
1740460277978435734,1.123,,,,0.2188981109
1740460277986143270,1.197,,,,0.2196688645
1740460277993850806,1.153,,,,0.2204396181
1740460278001558342,1.111,,,,0.2212103717
1740460278009265878,1.234,,,,0.2219811253
1740460278016973414,1.106,,,,0.2227518789
1740460278024680950,1.175,,,,0.2235226325
1740460278032388486,1.192,,,,0.2242933861
1740460278040096089,1.079,0.0,,,0.2250641464
1740460278047803974,1.241,,,,0.2258349349
1740460278055511859,1.167,,,,0.2266057234
1740460278063219744,1.187,,,,0.2273765119
1740460278070927629,1.28,,,,0.2281473004
1740460278078635514,1.126,,,,0.2289180889
1740460278086343399,1.251,,,,0.2296888774
1740460278094051284,1.199,,,,0.2304596659
1740460278101759169,1.091,,,,0.2312304544
1740460278109467054,1.192,,,,0.2320012429
1740460278117174939,1.023,,,,0.2327720314
1740460278124882824,1.045,,,,0.2335428199
1740460278132590709,1.047,,,,0.2343136084
1740460278140298594,0.912,,,,0.2350843969
1740460278148006479,1.03,,,,0.2358551854
1740460278155714364,0.934,,,,0.2366259739
1740460278163422249,0.949,,,,0.2373967624
1740460278171130134,1.055,,,,0.2381675509
1740460278178838019,0.961,,,,0.2389383394
1740460278186545904,1.096,,,,0.2397091279
1740460278194253789,1.05,,,,0.2404799164
1740460278201961674,1.015,,,,0.2412507049
1740460278209669559,1.128,,,,0.2420214934
1740460278217377444,0.932,,,,0.2427922819
1740460278225085329,0.971,,,,0.2435630704
1740460278232793214,1.018,,,,0.2443338589
1740460278240501099,0.937,,,,0.2451046474
1740460278248208984,1.062,,,,0.2458754359
1740460278255916869,0.981,,,,0.2466462244
1740460278263624754,1.023,,,,0.2474170129
1740460278271332639,1.091,,,,0.2481878014
1740460278279040524,0.983,,,,0.2489585899
1740460278286748409,1.118,,,,0.2497293784
1740460278294456294,1.04,,,,0.2505001669
1740460278302164179,0.998,,,,0.2512709554
1740460278309872064,1.138,,,,0.2520417439
1740460278317579949,1.001,,,,0.2528125324
1740460278325287834,1.057,,,,0.2535833209
1740460278332995719,1.045,,,,0.2543541094
1740460278340703604,0.952,,,,0.2551248979
1740460278348411489,1.089,,,,0.2558956864
1740460278356119374,0.964,,,,0.2566664749
1740460278363827259,0.986,,,,0.2574372634
1740460278371535144,1.042,,,,0.2582080519
1740460278379243029,0.902,,,,0.2589788404
1740460278386950914,1.032,,,,0.2597496289
1740460278394658799,0.944,,,,0.2605204174
1740460278402366684,0.875,,,,0.2612912059
1740460278410074569,0.993,,,,0.2620619944
1740460278417782454,0.861,,,,0.2628327829
1740460278425490339,0.944,,659.0,,0.2636035714
1740460278433198224,0.947,,,,0.2643743599
1740460278440906109,0.856,,,,0.2651451484
1740460278448613994,0.988,,,,0.2659159369
1740460278456321879,0.89,,,,0.2666867254
1740460278464029764,0.934,,,,0.2674575139
1740460278471737649,1.013,,,,0.2682283024
1740460278479445534,0.902,,,,0.2689990909
1740460278487153419,1.04,,,,0.2697698794
1740460278494861304,1.01,,,,0.2705406679
1740460278502569189,1.052,,,,0.2713114564
1740460278510277074,1.261,,,,0.2720822449
1740460278517984959,1.158,,,,0.2728530334
1740460278525692844,1.094,,,,0.2736238219
1740460278533400729,0.883,,,,0.2743946104
1740460278541108614,0.745,,,,0.2751653989
1740460278548816499,1.015,,,,0.2759361874
1740460278556524384,1.047,,,,0.2767069759
1740460278564232269,1.05,,,,0.2774777644
1740460278571940154,1.05,,,,0.2782485529
1740460278579648039,0.961,,,,0.2790193414
1740460278587355924,1.091,,,,0.2797901299
1740460278595063809,1.025,,,,0.2805609184
1740460278602771714,1.013,,,,0.2813317089
1740460278610479320,1.121,,,,0.2821024695
1740460278618186926,1.015,,,,0.2828732301
1740460278625894532,1.109,,,,0.2836439907
1740460278633602138,1.106,,,,0.2844147513
1740460278641309744,1.028,,,,0.2851855119
1740460278649017350,1.145,,,,0.2859562725
1740460278656724956,1.074,,,,0.2867270331
1740460278664432562,1.116,,,,0.2874977937
1740460278672140168,1.158,,,,0.2882685543
1740460278679847774,1.074,,,,0.2890393149
1740460278687555380,1.177,,,,0.2898100755
1740460278695262986,1.113,,,,0.2905808361
1740460278702970592,1.094,,,,0.2913515967
1740460278710678198,1.145,,,,0.2921223573
1740460278718385804,1.015,,,,0.2928931179
1740460278726093410,1.084,,,,0.2936638785
1740460278733801016,1.067,,,,0.2944346391
1740460278741508622,0.988,,,,0.2952053997
1740460278749216228,1.074,,,,0.2959761603
1740460278756923834,0.986,,,,0.2967469209
1740460278764631440,1.015,,,,0.2975176815
1740460278772339046,1.028,,,,0.2982884421
1740460278780046652,0.942,,,,0.2990592027
1740460278787754258,1.035,,,,0.2998299633
1740460278795461864,0.954,,,,0.3006007239
1740460278803169470,0.961,,,,0.3013714845
1740460278810877076,1.013,,,,0.3021422451
1740460278818584682,0.883,,,,0.3029130057
1740460278826292288,0.998,,,,0.3036837663
1740460278833999894,0.978,,,,0.3044545269
1740460278841707500,0.92,,,,0.3052252875
1740460278849415106,1.023,,,,0.3059960481
1740460278857122712,0.9,,,,0.3067668087
1740460278864830318,0.974,,,,0.3075375693
1740460278872537924,0.998,,,,0.3083083299
1740460278880245530,0.89,,,,0.3090790905
1740460278887953136,1.025,,,,0.3098498511
1740460278895660742,0.922,,,,0.3106206117
1740460278903368348,0.934,,,,0.3113913723
1740460278911075954,1.018,,,,0.3121621329
1740460278918783560,0.878,,,,0.3129328935
1740460278926491166,1.025,,,,0.3137036541
1740460278934198772,0.966,,,,0.3144744147
1740460278941906378,0.883,,,,0.3152451753
1740460278949613984,1.025,,,,0.3160159359
1740460278957321590,0.888,,,,0.3167866965
1740460278965029196,0.978,,,,0.3175574571
1740460278972736802,0.998,,,,0.3183282177
1740460278980444408,0.873,,,,0.3190989783
1740460278988152014,1.037,,,,0.3198697389
1740460278995859620,0.922,,,,0.3206404995
1740460279003567226,0.917,,,,0.3214112601
1740460279011274832,1.001,,,,0.3221820207
1740460279018982438,0.858,,,,0.3229527813
1740460279026690044,1.015,,,,0.3237235419
1740460279034397650,0.964,,,,0.3244943025
1740460279042105256,0.875,,,,0.3252650631
1740460279049812862,1.005,,627.0,,0.3260358237
1740460279057520468,0.873,,,,0.3268065843
1740460279065228074,0.952,,,,0.3275773449
1740460279072935680,0.956,,,,0.3283481055
1740460279080643286,0.868,,,,0.3291188661
1740460279088350892,1.035,,,,0.3298896267
1740460279096058498,0.893,,,,0.3306603873
1740460279103766104,0.969,,,,0.3314311479
1740460279111473710,1.172,,,,0.3322019085
1740460279119181316,1.055,,,,0.3329726691
1740460279126888922,1.072,,,,0.3337434297
1740460279134596528,0.76,,,,0.3345141903
1740460279142304134,0.5660000000000001,,,,0.3352849509
1740460279150011740,0.8190000000000001,,,,0.3360557115
1740460279157719346,0.8210000000000001,,,,0.3368264721
1740460279165426993,0.915,96.0,,,0.3375972368
1740460279173134738,0.841,,,,0.3383680113
1740460279180842483,0.723,,,,0.3391387858
1740460279188550228,0.9,,,,0.3399095603
1740460279196257973,0.716,,,,0.3406803348
1740460279203965718,0.733,,,,0.3414511093
1740460279211673463,0.851,,,,0.3422218838
1740460279219381208,0.7010000000000001,,,,0.3429926583
1740460279227088953,0.834,,,,0.3437634328
1740460279234796698,0.765,,,,0.3445342073
1740460279242504443,0.758,,,,0.3453049818
1740460279250212188,0.917,,,,0.3460757563
1740460279257919933,0.767,,,,0.3468465308
1740460279265627678,0.912,,,,0.3476173053
1740460279273335423,0.934,,,,0.3483880798
1740460279281043168,0.848,,,,0.3491588543
1740460279288750913,1.052,,,,0.3499296288
1740460279296458658,0.932,,,,0.3507004033
1740460279304166403,0.966,,,,0.3514711778
1740460279311874148,1.042,,,,0.3522419523
1740460279319581893,0.905,,,,0.3530127268
1740460279327289638,1.069,,,,0.3537835013
1740460279334997383,0.983,,,,0.3545542758
1740460279342705128,0.929,,,,0.3553250503
1740460279350412873,1.052,,,,0.3560958248
1740460279358120618,0.885,,,,0.3568665993
1740460279365828363,0.978,,,,0.3576373738
1740460279373536108,0.978,,,,0.3584081483
1740460279381243853,0.89,,,,0.3591789228
1740460279388951598,1.035,,,,0.3599496973
1740460279396659343,0.895,,,,0.3607204718
1740460279404367088,0.927,,,,0.3614912463
1740460279412074833,0.974,,,,0.3622620208
1740460279419782578,0.8210000000000001,,,,0.3630327953
1740460279427490323,0.932,,,,0.3638035698
1740460279435198068,0.844,,,,0.3645743443
1740460279442905813,0.8310000000000001,,,,0.3653451188
1740460279450613558,0.925,,,,0.3661158933
1740460279458321303,0.775,,,,0.3668866678
1740460279466029048,0.92,,,,0.3676574423
1740460279473736793,0.927,,,,0.3684282168
1740460279481444538,0.834,,,,0.3691989913
1740460279489152283,0.971,,,,0.3699697658
1740460279496860028,0.846,,,,0.3707405403
1740460279504567773,0.861,,,,0.3715113148
1740460279512275518,0.878,,,,0.3722820893
1740460279519983263,0.745,,,,0.3730528638
1740460279527691008,0.861,,,,0.3738236383
1740460279535398753,0.76,,,,0.3745944128
1740460279543106498,0.753,,,,0.3753651873
1740460279550814243,0.844,,,,0.3761359618
1740460279558521988,0.679,,,,0.3769067363
1740460279566229733,0.782,,,,0.3776775108
1740460279573937478,0.755,,,,0.3784482853
1740460279581645223,0.6890000000000001,,,,0.3792190598
1740460279589352968,0.809,,,,0.3799898343
1740460279597060713,0.63,,,,0.3807606088
1740460279604768458,0.672,,,,0.3815313833
1740460279612476203,0.728,,,,0.3823021578
1740460279620183948,0.613,,,,0.3830729323
1740460279627891693,0.745,,,,0.3838437068
1740460279635599438,0.645,,,,0.3846144813
1740460279643307183,0.64,,,,0.3853852558
1740460279651014928,0.738,,604.0,,0.3861560303
1740460279658722673,0.5760000000000001,,,,0.3869268048
1740460279666430418,0.677,,,,0.3876975793
1740460279674138163,0.647,,,,0.3884683538
1740460279681845908,0.5710000000000001,,,,0.3892391283
1740460279689553653,0.704,,,,0.3900099028
1740460279697261398,0.674,,,,0.3907806773
1740460279704969143,0.871,,,,0.3915514518
1740460279712676888,0.844,,,,0.3923222263
1740460279720384633,0.539,,,,0.3930930008
1740460279728092446,0.48,,,,0.3938637821
1740460279735800191,0.277,,,,0.3946345566
1740460279743507936,0.471,,,,0.3954053311
1740460279751215681,0.718,,,,0.3961761056
1740460279758923426,0.468,,,,0.3969468801
1740460279766631171,0.556,,,,0.3977176546
1740460279774338916,0.542,,,,0.3984884291
1740460279782046661,0.424,,,,0.3992592036
1740460279789754406,0.529,,,,0.4000299781
1740460279797462151,0.422,,,,0.4008007526
1740460279805169896,0.507,,,,0.4015715271
1740460279812877641,0.544,,,,0.4023423016
1740460279820585386,0.434,,,,0.4031130761
1740460279828293131,0.5690000000000001,,,,0.4038838506
1740460279836000876,0.498,,,,0.4046546251
1740460279843708621,0.493,,,,0.4054253996
1740460279851416366,0.583,,,,0.4061961741
1740460279859124111,0.48,,,,0.4069669486
1740460279866831856,0.544,,,,0.4077377231
1740460279874539601,0.527,,,,0.4085084976
1740460279882247346,0.451,,,,0.4092792721
1740460279889955091,0.512,,,,0.4100500466
1740460279897662836,0.451,,,,0.4108208211
1740460279905370581,0.451,,,,0.4115915956
1740460279913078326,0.449,,,,0.4123623701
1740460279920786071,0.387,,,,0.4131331446
1740460279928493816,0.444,,,,0.4139039191
1740460279936201561,0.387,,,,0.4146746936
1740460279943909306,0.341,,,,0.4154454681
1740460279951617051,0.372,,,,0.4162162426
1740460279959324796,0.341,,,,0.4169870171
1740460279967032541,0.358,,,,0.4177577916
1740460279974740286,0.331,,,,0.4185285661
1740460279982448031,0.318,,,,0.4192993406
1740460279990155776,0.36,,,,0.4200701151
1740460279997863521,0.316,,,,0.4208408896
1740460280005571266,0.343,,,,0.4216116641
1740460280013279011,0.341,,,,0.4223824386
1740460280020986756,0.284,,,,0.4231532131
1740460280028694501,0.343,,,,0.4239239876
1740460280036402246,0.338,,,,0.4246947621
1740460280044109991,0.328,,,,0.4254655366
1740460280051817736,0.343,,,,0.4262363111
1740460280059525481,0.326,,,,0.4270070856
1740460280067233226,0.365,,,,0.4277778601
1740460280074940971,0.318,,,,0.4285486346
1740460280082648716,0.284,,,,0.4293194091
1740460280090356461,0.323,,,,0.4300901836
1740460280098064206,0.272,,,,0.4308609581
1740460280105771951,0.267,,,,0.4316317326
1740460280113479696,0.255,,,,0.4324025071
1740460280121187441,0.215,,,,0.4331732816
1740460280128895186,0.24,,,,0.4339440561
1740460280136602931,0.198,,,,0.4347148306
1740460280144310676,0.203,,,,0.4354856051
1740460280152018421,0.213,,,,0.4362563796
1740460280159726166,0.157,,,,0.4370271541
1740460280167433911,0.191,,,,0.4377979286
1740460280175141656,0.171,,,,0.4385687031
1740460280182849401,0.147,,,,0.4393394776
1740460280190557146,0.179,,,,0.4401102521
1740460280198264891,0.139,,,,0.4408810266
1740460280205972636,0.157,,,,0.4416518011
1740460280213680381,0.137,,,,0.4424225756
1740460280221388126,0.11,,,,0.4431933501
1740460280229095871,0.154,,,,0.4439641246
1740460280236803616,0.09,,,,0.4447348991
1740460280244511361,0.095,,,,0.4455056736
1740460280252219106,0.105,,599.0,,0.4462764481
1740460280259926851,0.044,,,,0.4470472226
1740460280267634596,0.098,,,,0.4478179971
1740460280275342341,0.147,,,,0.4485887716
1740460280283050086,0.267,,,,0.4493595461
1740460280290757897,0.343,97.0,,,0.4501303272
1740460280298465503,0.137,,,,0.4509010878
1740460280306173109,-0.066,,,,0.4516718484
1740460280313880715,-0.166,,,,0.452442609
1740460280321588321,-0.049,,,,0.4532133696
1740460280329295927,0.134,,,,0.4539841302
1740460280337003533,0.049,,,,0.4547548908
1740460280344711139,0.046,,,,0.4555256514
1740460280352418745,0.085,,,,0.456296412
1740460280360126351,0.014,,,,0.4570671726
1740460280367833957,0.058,,,,0.4578379332
1740460280375541563,0.034,,,,0.4586086938
1740460280383249169,0.066,,,,0.4593794544
1740460280390956775,0.122,,,,0.460150215
1740460280398664381,0.053,,,,0.4609209756
1740460280406371987,0.125,,,,0.4616917362
1740460280414079593,0.115,,,,0.4624624968
1740460280421787199,0.095,,,,0.4632332574
1740460280429494805,0.184,,,,0.464004018
1740460280437202411,0.107,,,,0.4647747786
1740460280444910017,0.157,,,,0.4655455392
1740460280452617623,0.184,,,,0.4663162998
1740460280460325229,0.095,,,,0.4670870604
1740460280468032835,0.181,,,,0.467857821
1740460280475740441,0.127,,,,0.4686285816
1740460280483448047,0.093,,,,0.4693993422
1740460280491155653,0.149,,,,0.4701701028
1740460280498863259,0.063,,,,0.4709408634
1740460280506570865,0.09,,,,0.471711624
1740460280514278471,0.073,,,,0.4724823846
1740460280521986077,0.014,,,,0.4732531452
1740460280529693683,0.051,,,,0.4740239058
1740460280537401289,-0.019,,,,0.4747946664
1740460280545108895,-0.004,,,,0.475565427
1740460280552816501,0.0,,,,0.4763361876
1740460280560524107,-0.053,,,,0.4771069482
1740460280568231713,0.017,,,,0.4778777088
1740460280575939319,-0.039,,,,0.4786484694
1740460280583646925,-0.036,,,,0.47941923
1740460280591354531,0.009,,,,0.4801899906
1740460280599062137,-0.063,,,,0.4809607512
1740460280606769743,0.014,,,,0.4817315118
1740460280614477349,-0.024,,,,0.4825022724
1740460280622184955,-0.071,,,,0.483273033
1740460280629892561,-0.017,,,,0.4840437936
1740460280637600167,-0.13,,,,0.4848145542
1740460280645307773,-0.068,,,,0.4855853148
1740460280653015379,-0.08,,,,0.4863560754
1740460280660722985,-0.171,,,,0.487126836
1740460280668430591,-0.053,,,,0.4878975966
1740460280676138197,-0.157,,,,0.4886683572
1740460280683845803,-0.149,,,,0.4894391178
1740460280691553409,-0.085,,,,0.4902098784
1740460280699261015,-0.218,,,,0.490980639
1740460280706968621,-0.127,,,,0.4917513996
1740460280714676227,-0.193,,,,0.4925221602
1740460280722383833,-0.267,,,,0.4932929208
1740460280730091439,-0.176,,,,0.4940636814
1740460280737799045,-0.318,,,,0.494834442
1740460280745506651,-0.299,,,,0.4956052026
1740460280753214257,-0.289,,,,0.4963759632
1740460280760921863,-0.38,,,,0.4971467238
1740460280768629469,-0.289,,,,0.4979174844
1740460280776337075,-0.375,,,,0.498688245
1740460280784044681,-0.38,,,,0.4994590056
1740460280791752287,-0.331,,,,0.5002297662
1740460280799459893,-0.446,,,,0.5010005268
1740460280807167499,-0.377,,,,0.5017712874
1740460280814875105,-0.409,,,,0.502542048
1740460280822582711,-0.453,,,,0.5033128086
1740460280830290317,-0.382,,,,0.5040835692
1740460280837997923,-0.456,,,,0.5048543298
1740460280845705529,-0.326,,,,0.5056250904
1740460280853413178,-0.208,98.0,605.0,,0.5063958553
1740460280861121063,-0.309,,,,0.5071666438
1740460280868828948,-0.419,,,,0.5079374323
1740460280876536833,-0.723,,,,0.5087082208
1740460280884244718,-0.799,,,,0.5094790093
1740460280891952603,-0.603,,,,0.5102497978
1740460280899660488,-0.5660000000000001,,,,0.5110205863
1740460280907368373,-0.539,,,,0.5117913748
1740460280915076258,-0.603,,,,0.5125621633
1740460280922784143,-0.608,,,,0.5133329518
1740460280930492028,-0.539,,,,0.5141037403
1740460280938199913,-0.63,,,,0.5148745288
1740460280945907798,-0.549,,,,0.5156453173
1740460280953615683,-0.542,,,,0.5164161058
1740460280961323568,-0.586,,,,0.5171868943
1740460280969031453,-0.461,,,,0.5179576828
1740460280976739338,-0.542,,,,0.5187284713
1740460280984447223,-0.515,,,,0.5194992598
1740460280992155108,-0.463,,,,0.5202700483
1740460280999862993,-0.554,,,,0.5210408368
1740460281007570878,-0.449,,,,0.5218116253
1740460281015278763,-0.512,,,,0.5225824138
1740460281022986648,-0.559,,,,0.5233532023
1740460281030694533,-0.468,,,,0.5241239908
1740460281038402418,-0.588,,,,0.5248947793
1740460281046110303,-0.542,,,,0.5256655678
1740460281053818188,-0.539,,,,0.5264363563
1740460281061526073,-0.628,,,,0.5272071448
1740460281069233958,-0.547,,,,0.5279779333
1740460281076941843,-0.623,,,,0.5287487218
1740460281084649728,-0.62,,,,0.5295195103
1740460281092357613,-0.5740000000000001,,,,0.5302902988
1740460281100065498,-0.652,,,,0.5310610873
1740460281107773383,-0.579,,,,0.5318318758
1740460281115481268,-0.598,,,,0.5326026643
1740460281123189153,-0.615,,,,0.5333734528
1740460281130897038,-0.534,,,,0.5341442413
1740460281138604923,-0.596,,,,0.5349150298
1740460281146312808,-0.559,,,,0.5356858183
1740460281154020693,-0.547,,,,0.5364566068
1740460281161728578,-0.608,,,,0.5372273953
1740460281169436463,-0.544,,,,0.5379981838
1740460281177144348,-0.5710000000000001,,,,0.5387689723
1740460281184852233,-0.5660000000000001,,,,0.5395397608
1740460281192560118,-0.537,,,,0.5403105493
1740460281200268003,-0.586,,,,0.5410813378
1740460281207975888,-0.527,,,,0.5418521263
1740460281215683773,-0.539,,,,0.5426229148
1740460281223391658,-0.5640000000000001,,,,0.5433937033
1740460281231099543,-0.515,,,,0.5441644918
1740460281238807428,-0.5660000000000001,,,,0.5449352803
1740460281246515313,-0.554,,,,0.5457060688
1740460281254223198,-0.539,,,,0.5464768573
1740460281261931083,-0.583,,,,0.5472476458
1740460281269638968,-0.537,,,,0.5480184343
1740460281277346853,-0.556,,,,0.5487892228
1740460281285054738,-0.5690000000000001,,,,0.5495600113
1740460281292762623,-0.537,,,,0.5503307998
1740460281300470508,-0.583,,,,0.5511015883
1740460281308178393,-0.581,,,,0.5518723768
1740460281315886278,-0.588,,,,0.5526431653
1740460281323594163,-0.61,,,,0.5534139538
1740460281331302048,-0.5740000000000001,,,,0.5541847423
1740460281339009933,-0.596,,,,0.5549555308
1740460281346717818,-0.601,,,,0.5557263193
1740460281354425703,-0.5760000000000001,,,,0.5564971078
1740460281362133588,-0.606,,,,0.5572678963
1740460281369841473,-0.586,,,,0.5580386848
1740460281377549358,-0.583,,,,0.5588094733
1740460281385257243,-0.606,,,,0.5595802618
1740460281392965128,-0.581,,,,0.5603510503
1740460281400673013,-0.586,,,,0.5611218388
1740460281408380898,-0.502,,,,0.5618926273
1740460281416088803,-0.36,,,,0.5626634178
1740460281423796688,-0.368,,,,0.5634342063
1740460281431504573,-0.505,,,,0.5642049948
1740460281439212458,-0.728,,,,0.5649757833
1740460281446920343,-0.834,,,,0.5657465718
1740460281454628228,-0.706,,,,0.5665173603
1740460281462336113,-0.5660000000000001,,604.0,,0.5672881488
1740460281470043998,-0.561,,,,0.5680589373
1740460281477751883,-0.625,,,,0.5688297258
1740460281485459768,-0.613,,,,0.5696005143
1740460281493167653,-0.598,,,,0.5703713028
1740460281500875538,-0.642,,,,0.5711420913
1740460281508583423,-0.615,,,,0.5719128798
1740460281516291308,-0.608,,,,0.5726836683
1740460281523999193,-0.596,,,,0.5734544568
1740460281531707078,-0.559,,,,0.5742252453
1740460281539414963,-0.583,,,,0.5749960338
1740460281547122848,-0.544,,,,0.5757668223
1740460281554830733,-0.544,,,,0.5765376108
1740460281562538618,-0.561,,,,0.5773083993
1740460281570246503,-0.512,,,,0.5780791878
1740460281577954388,-0.552,,,,0.5788499763
1740460281585662273,-0.539,,,,0.5796207648
1740460281593370158,-0.542,,,,0.5803915533
1740460281601078043,-0.591,,,,0.5811623418
1740460281608785928,-0.547,,,,0.5819331303
1740460281616493813,-0.596,,,,0.5827039188
1740460281624201698,-0.603,,,,0.5834747073
1740460281631909583,-0.5640000000000001,,,,0.5842454958
1740460281639617468,-0.628,,,,0.5850162843
1740460281647325353,-0.586,,,,0.5857870728
1740460281655033238,-0.598,,,,0.5865578613
1740460281662741123,-0.628,,,,0.5873286498
1740460281670449008,-0.5740000000000001,,,,0.5880994383
1740460281678156893,-0.628,,,,0.5888702268
1740460281685864778,-0.601,,,,0.5896410153
1740460281693572663,-0.586,,,,0.5904118038
1740460281701280548,-0.637,,,,0.5911825923
1740460281708988433,-0.5710000000000001,,,,0.5919533808
1740460281716696318,-0.606,,,,0.5927241693
1740460281724404203,-0.603,,,,0.5934949578
1740460281732112088,-0.5740000000000001,,,,0.5942657463
1740460281739819973,-0.637,,,,0.5950365348
1740460281747527858,-0.5690000000000001,,,,0.5958073233
1740460281755235743,-0.5760000000000001,,,,0.5965781118
1740460281762943628,-0.583,,,,0.5973489003
1740460281770651513,-0.505,,,,0.5981196888
1740460281778359398,-0.559,,,,0.5988904773
1740460281786067283,-0.515,,,,0.5996612658
1740460281793775168,-0.517,,,,0.6004320543
1740460281801483053,-0.559,,,,0.6012028428
1740460281809190938,-0.485,,,,0.6019736313
1740460281816898823,-0.5660000000000001,,,,0.6027444198
1740460281824606708,-0.537,,,,0.6035152083
1740460281832314593,-0.505,,,,0.6042859968
1740460281840022478,-0.588,,,,0.6050567853
1740460281847730363,-0.493,,,,0.6058275738
1740460281855438248,-0.556,,,,0.6065983623
1740460281863146133,-0.5640000000000001,,,,0.6073691508
1740460281870854018,-0.49,,,,0.6081399393
1740460281878561903,-0.623,,,,0.6089107278
1740460281886269788,-0.554,,,,0.6096815163
1740460281893977673,-0.591,,,,0.6104523048
1740460281901685558,-0.628,,,,0.6112230933
1740460281909393443,-0.498,,,,0.6119938818
1740460281917101328,-0.647,,,,0.6127646703
1740460281924809213,-0.547,,,,0.6135354588
1740460281932517098,-0.527,,,,0.6143062473
1740460281940224983,-0.669,,,,0.6150770358
1740460281947932868,-0.466,,,,0.6158478243
1740460281955640753,-0.606,,,,0.6166186128
1740460281963348638,-0.579,,,,0.6173894013
1740460281971056523,-0.449,,,,0.6181601898
1740460281978764428,-0.608,99.0,,,0.6189309803
1740460281986471895,-0.26,,,,0.619701727
1740460281994179362,-0.338,,,,0.6204724737
1740460282001886829,-0.583,,,,0.6212432204
1740460282009594296,-0.544,,,,0.6220139671
1740460282017301763,-0.91,,,,0.6227847138
1740460282025009230,-0.591,,,,0.6235554605
1740460282032716697,-0.399,,,,0.6243262072
1740460282040424164,-0.6910000000000001,,,,0.6250969539
1740460282048131631,-0.419,,,,0.6258677006
1740460282055839098,-0.645,,,,0.6266384473
1740460282063546565,-0.669,,604.0,,0.627409194
1740460282071254032,-0.483,,,,0.6281799407
1740460282078961499,-0.804,,,,0.6289506874
1740460282086668966,-0.549,,,,0.6297214341
1740460282094376433,-0.603,,,,0.6304921808
1740460282102083900,-0.731,,,,0.6312629275
1740460282109791367,-0.439,,,,0.6320336742
1740460282117498834,-0.7010000000000001,,,,0.6328044209
1740460282125206301,-0.561,,,,0.6335751676
1740460282132913768,-0.485,,,,0.6343459143
1740460282140621235,-0.6990000000000001,,,,0.635116661
1740460282148328702,-0.417,,,,0.6358874077
1740460282156036169,-0.606,,,,0.6366581544
1740460282163743636,-0.61,,,,0.6374289011
1740460282171451103,-0.461,,,,0.6381996478
1740460282179158570,-0.736,,,,0.6389703945
1740460282186866037,-0.515,,,,0.6397411412
1740460282194573504,-0.62,,,,0.6405118879
1740460282202280971,-0.75,,,,0.6412826346
1740460282209988438,-0.515,,,,0.6420533813
1740460282217695905,-0.777,,,,0.642824128
1740460282225403372,-0.645,,,,0.6435948747
1740460282233110839,-0.62,,,,0.6443656214
1740460282240818306,-0.8290000000000001,,,,0.6451363681
1740460282248525773,-0.556,,,,0.6459071148
1740460282256233240,-0.748,,,,0.6466778615
1740460282263940707,-0.728,,,,0.6474486082
1740460282271648174,-0.5760000000000001,,,,0.6482193549
1740460282279355641,-0.8240000000000001,,,,0.6489901016
1740460282287063108,-0.591,,,,0.6497608483
1740460282294770575,-0.682,,,,0.650531595
1740460282302478042,-0.785,,,,0.6513023417
1740460282310185509,-0.561,,,,0.6520730884
1740460282317892976,-0.799,,,,0.6528438351
1740460282325600443,-0.652,,,,0.6536145818
1740460282333307910,-0.625,,,,0.6543853285
1740460282341015377,-0.809,,,,0.6551560752
1740460282348722844,-0.554,,,,0.6559268219
1740460282356430311,-0.731,,,,0.6566975686
1740460282364137778,-0.714,,,,0.6574683153
1740460282371845245,-0.581,,,,0.658239062
1740460282379552712,-0.799,,,,0.6590098087
1740460282387260179,-0.598,,,,0.6597805554
1740460282394967646,-0.6940000000000001,,,,0.6605513021
1740460282402675113,-0.785,,,,0.6613220488
1740460282410382580,-0.588,,,,0.6620927955
1740460282418090047,-0.799,,,,0.6628635422
1740460282425797514,-0.677,,,,0.6636342889
1740460282433504981,-0.657,,,,0.6644050356
1740460282441212448,-0.799,,,,0.6651757823
1740460282448919915,-0.586,,,,0.665946529
1740460282456627382,-0.76,,,,0.6667172757
1740460282464334849,-0.731,,,,0.6674880224
1740460282472042316,-0.623,,,,0.6682587691
1740460282479749783,-0.8170000000000001,,,,0.6690295158
1740460282487457250,-0.635,,,,0.6698002625
1740460282495164717,-0.726,,,,0.6705710092
1740460282502872184,-0.777,,,,0.6713417559
1740460282510579651,-0.608,,,,0.6721125026
1740460282518287118,-0.809,,,,0.6728832493
1740460282525994585,-0.674,,,,0.673653996
1740460282533702052,-0.674,,,,0.6744247427
1740460282541409535,-0.809,,,,0.675195491
1740460282549117420,-0.601,,,,0.6759662795
1740460282556825305,-0.765,,,,0.676737068
1740460282564533190,-0.662,,,,0.6775078565
1740460282572241075,-0.456,,,,0.678278645
1740460282579948960,-0.61,,,,0.6790494335
1740460282587656845,-0.5660000000000001,,,,0.679820222
1740460282595364730,-0.89,,,,0.6805910105
1740460282603072615,-1.013,,,,0.681361799
1740460282610780500,-0.6990000000000001,,,,0.6821325875
1740460282618488385,-0.733,,,,0.682903376
1740460282626196270,-0.615,,,,0.6836741645
1740460282633904155,-0.704,,,,0.684444953
1740460282641612040,-0.8170000000000001,,,,0.6852157415
1740460282649319925,-0.603,,,,0.68598653
1740460282657027810,-0.802,,589.0,,0.6867573185
1740460282664735695,-0.736,,,,0.687528107
1740460282672443580,-0.637,,,,0.6882988955
1740460282680151465,-0.799,,,,0.689069684
1740460282687859350,-0.583,,,,0.6898404725
1740460282695567235,-0.6990000000000001,,,,0.690611261
1740460282703275120,-0.718,,,,0.6913820495
1740460282710983005,-0.547,,,,0.692152838
1740460282718690890,-0.745,,,,0.6929236265
1740460282726398775,-0.5710000000000001,,,,0.693694415
1740460282734106660,-0.598,,,,0.6944652035
1740460282741814545,-0.711,,,,0.695235992
1740460282749522430,-0.498,,,,0.6960067805
1740460282757230315,-0.704,,,,0.696777569
1740460282764938200,-0.637,,,,0.6975483575
1740460282772646085,-0.5760000000000001,,,,0.698319146
1740460282780353970,-0.775,,,,0.6990899345
1740460282788061855,-0.5690000000000001,,,,0.699860723
1740460282795769740,-0.711,,,,0.7006315115
1740460282803477625,-0.733,,,,0.7014023
1740460282811185510,-0.586,,,,0.7021730885
1740460282818893395,-0.807,,,,0.702943877
1740460282826601280,-0.635,,,,0.7037146655
1740460282834309165,-0.679,,,,0.704485454
1740460282842017050,-0.782,,,,0.7052562425
1740460282849724935,-0.5660000000000001,,,,0.706027031
1740460282857432820,-0.765,,,,0.7067978195
1740460282865140705,-0.66,,,,0.707568608
1740460282872848590,-0.603,,,,0.7083393965
1740460282880556475,-0.785,,,,0.709110185
1740460282888264360,-0.549,,,,0.7098809735
1740460282895972245,-0.6940000000000001,,,,0.710651762
1740460282903680130,-0.682,,,,0.7114225505
1740460282911388015,-0.52,,,,0.712193339
1740460282919095900,-0.733,,,,0.7129641275
1740460282926803785,-0.532,,,,0.713734916
1740460282934511670,-0.593,,,,0.7145057045
1740460282942219555,-0.7010000000000001,,,,0.715276493
1740460282949927440,-0.483,,,,0.7160472815
1740460282957635325,-0.6960000000000001,,,,0.71681807
1740460282965343210,-0.593,,,,0.7175888585
1740460282973051095,-0.554,,,,0.718359647
1740460282980758980,-0.733,,,,0.7191304355
1740460282988466865,-0.51,,,,0.719901224
1740460282996174750,-0.679,,,,0.7206720125
1740460283003882635,-0.667,,,,0.721442801
1740460283011590520,-0.534,,,,0.7222135895
1740460283019298405,-0.765,,,,0.722984378
1740460283027006290,-0.561,,,,0.7237551665
1740460283034714175,-0.63,,,,0.724525955
1740460283042422060,-0.718,,,,0.7252967435
1740460283050129945,-0.505,,,,0.726067532
1740460283057837830,-0.714,,,,0.7268383205
1740460283065545715,-0.586,,,,0.727609109
1740460283073253600,-0.5710000000000001,,,,0.7283798975
1740460283080961485,-0.75,,,,0.729150686
1740460283088669370,-0.515,,,,0.7299214745
1740460283096377255,-0.6940000000000001,,,,0.730692263
1740460283104085160,-0.677,100.0,,,0.7314630535
1740460283111792627,-0.547,,,,0.7322338002
1740460283119500094,-0.77,,,,0.7330045469
1740460283127207561,-0.5690000000000001,,,,0.7337752936
1740460283134915028,-0.65,,,,0.7345460403
1740460283142622495,-0.723,,,,0.735316787
1740460283150329962,-0.525,,,,0.7360875337
1740460283158037429,-0.743,,,,0.7368582804
1740460283165744896,-0.613,,,,0.7376290271
1740460283173452363,-0.583,,,,0.7383997738
1740460283181159830,-0.655,,,,0.7391705205
1740460283188867297,-0.304,,,,0.7399412672
1740460283196574764,-0.498,,,,0.7407120139
1740460283204282231,-0.664,,,,0.7414827606
1740460283211989698,-0.77,,,,0.7422535073
1740460283219697165,-0.976,,,,0.743024254
1740460283227404632,-0.556,,,,0.7437950007
1740460283235112099,-0.561,,581.0,,0.7445657474
1740460283242819566,-0.6940000000000001,,,,0.7453364941
1740460283250527033,-0.527,,,,0.7461072408
1740460283258234500,-0.723,,,,0.7468779875
1740460283265941967,-0.588,,,,0.7476487342
1740460283273649434,-0.61,,,,0.7484194809
1740460283281356901,-0.755,,,,0.7491902276
1740460283289064368,-0.5,,,,0.7499609743
1740460283296771835,-0.669,,,,0.750731721
1740460283304479302,-0.603,,,,0.7515024677
1740460283312186769,-0.488,,,,0.7522732144
1740460283319894236,-0.6940000000000001,,,,0.7530439611
1740460283327601703,-0.473,,,,0.7538147078
1740460283335309170,-0.5710000000000001,,,,0.7545854545
1740460283343016637,-0.618,,,,0.7553562012
1740460283350724104,-0.434,,,,0.7561269479
1740460283358431571,-0.655,,,,0.7568976946
1740460283366139038,-0.505,,,,0.7576684413
1740460283373846505,-0.529,,,,0.758439188
1740460283381553972,-0.6890000000000001,,,,0.7592099347
1740460283389261439,-0.476,,,,0.7599806814
1740460283396968906,-0.674,,,,0.7607514281
1740460283404676373,-0.618,,,,0.7615221748
1740460283412383840,-0.537,,,,0.7622929215
1740460283420091307,-0.745,,,,0.7630636682
1740460283427798774,-0.534,,,,0.7638344149
1740460283435506241,-0.657,,,,0.7646051616
1740460283443213708,-0.7010000000000001,,,,0.7653759083
1740460283450921175,-0.534,,,,0.766146655
1740460283458628642,-0.753,,,,0.7669174017
1740460283466336109,-0.586,,,,0.7676881484
1740460283474043576,-0.61,,,,0.7684588951
1740460283481751043,-0.745,,,,0.7692296418
1740460283489458510,-0.532,,,,0.7700003885
1740460283497165977,-0.731,,,,0.7707711352
1740460283504873444,-0.652,,,,0.7715418819
1740460283512580911,-0.5710000000000001,,,,0.7723126286
1740460283520288378,-0.763,,,,0.7730833753
1740460283527995845,-0.542,,,,0.773854122
1740460283535703312,-0.674,,,,0.7746248687
1740460283543410779,-0.6990000000000001,,,,0.7753956154
1740460283551118246,-0.534,,,,0.7761663621
1740460283558825713,-0.763,,,,0.7769371088
1740460283566533180,-0.606,,,,0.7777078555
1740460283574240647,-0.647,,,,0.7784786022
1740460283581948114,-0.775,,,,0.7792493489
1740460283589655581,-0.579,,,,0.7800200956
1740460283597363048,-0.785,,,,0.7807908423
1740460283605070515,-0.7010000000000001,,,,0.781561589
1740460283612777982,-0.647,,,,0.7823323357
1740460283620485449,-0.841,,,,0.7831030824
1740460283628192916,-0.63,,,,0.7838738291
1740460283635900383,-0.775,,,,0.7846445758
1740460283643607850,-0.79,,,,0.7854153225
1740460283651315317,-0.647,,,,0.7861860692
1740460283659022784,-0.866,,,,0.7869568159
1740460283666730267,-0.687,,,,0.7877275642
1740460283674438082,-0.733,,,,0.7884983457
1740460283682145897,-0.846,,,,0.7892691272
1740460283689853712,-0.647,,,,0.7900399087
1740460283697561527,-0.856,,,,0.7908106902
1740460283705269342,-0.77,,,,0.7915814717
1740460283712977157,-0.728,,,,0.7923522532
1740460283720684972,-0.915,,,,0.7931230347
1740460283728392787,-0.6960000000000001,,,,0.7938938162
1740460283736100602,-0.834,,,,0.7946645977
1740460283743808417,-0.8210000000000001,,,,0.7954353792
1740460283751516232,-0.682,,,,0.7962061607
1740460283759224047,-0.895,,,,0.7969769422
1740460283766931862,-0.682,,,,0.7977477237
1740460283774639677,-0.6990000000000001,,,,0.7985185052
1740460283782347492,-0.792,,,,0.7992892867
1740460283790055307,-0.596,,,,0.8000600682
1740460283797763122,-0.74,,,,0.8008308497
1740460283805470937,-0.502,,570.0,,0.8016016312
1740460283813178752,-0.355,,,,0.8023724127
1740460283820886567,-0.554,,,,0.8031431942
1740460283828594382,-0.505,,,,0.8039139757
1740460283836302197,-0.866,,,,0.8046847572
1740460283844010012,-0.92,,,,0.8054555387
1740460283851717827,-0.63,,,,0.8062263202
1740460283859425642,-0.7010000000000001,,,,0.8069971017
1740460283867133457,-0.539,,,,0.8077678832
1740460283874841272,-0.64,,,,0.8085386647
1740460283882549087,-0.6960000000000001,,,,0.8093094462
1740460283890256902,-0.502,,,,0.8100802277
1740460283897964717,-0.728,,,,0.8108510092
1740460283905672532,-0.618,,,,0.8116217907
1740460283913380347,-0.583,,,,0.8123925722
1740460283921088162,-0.723,,,,0.8131633537
1740460283928795977,-0.517,,,,0.8139341352
1740460283936503792,-0.6910000000000001,,,,0.8147049167
1740460283944211607,-0.652,,,,0.8154756982
1740460283951919422,-0.532,,,,0.8162464797
1740460283959627237,-0.763,,,,0.8170172612
1740460283967335052,-0.5710000000000001,,,,0.8177880427
1740460283975042867,-0.625,,,,0.8185588242
1740460283982750682,-0.706,,,,0.8193296057
1740460283990458497,-0.522,,,,0.8201003872
1740460283998166312,-0.714,,,,0.8208711687
1740460284005874127,-0.62,,,,0.8216419502
1740460284013581942,-0.596,,,,0.8224127317
1740460284021289757,-0.75,,,,0.8231835132
1740460284028997572,-0.586,,,,0.8239542947
1740460284036705387,-0.714,,,,0.8247250762
1740460284044413202,-0.709,,,,0.8254958577
1740460284052121017,-0.623,,,,0.8262666392
1740460284059828832,-0.794,,,,0.8270374207
1740460284067536647,-0.664,,,,0.8278082022
1740460284075244462,-0.704,,,,0.8285789837
1740460284082952277,-0.78,,,,0.8293497652
1740460284090660092,-0.664,,,,0.8301205467
1740460284098367907,-0.78,,,,0.8308913282
1740460284106075722,-0.723,,,,0.8316621097
1740460284113783537,-0.748,,,,0.8324328912
1740460284121491352,-0.807,,,,0.8332036727
1740460284129199167,-0.645,,,,0.8339744542
1740460284136906982,-0.772,,,,0.8347452357
1740460284144614797,-0.716,,,,0.8355160172
1740460284152322612,-0.635,,,,0.8362867987
1740460284160030427,-0.785,,,,0.8370575802
1740460284167738242,-0.65,,,,0.8378283617
1740460284175446057,-0.6910000000000001,,,,0.8385991432
1740460284183153872,-0.704,,,,0.8393699247
1740460284190861687,-0.61,,,,0.8401407062
1740460284198569502,-0.758,,,,0.8409114877
1740460284206277317,-0.606,,,,0.8416822692
1740460284213985132,-0.618,,,,0.8424530507
1740460284221692947,-0.723,,,,0.8432238322
1740460284229400804,-0.583,102.0,,,0.8439946179
1740460284237108340,-0.718,,,,0.8447653715
1740460284244815876,-0.61,,,,0.8455361251
1740460284252523412,-0.5640000000000001,,,,0.8463068787
1740460284260230948,-0.718,,,,0.8470776323
1740460284267938484,-0.525,,,,0.8478483859
1740460284275646020,-0.64,,,,0.8486191395
1740460284283353556,-0.625,,,,0.8493898931
1740460284291061092,-0.512,,,,0.8501606467
1740460284298768628,-0.718,,,,0.8509314003
1740460284306476164,-0.505,,,,0.8517021539
1740460284314183700,-0.5710000000000001,,,,0.8524729075
1740460284321891236,-0.7010000000000001,,,,0.8532436611
1740460284329598772,-0.471,,,,0.8540144147
1740460284337306308,-0.667,,,,0.8547851683
1740460284345013844,-0.586,,,,0.8555559219
1740460284352721380,-0.505,,,,0.8563266755
1740460284360428916,-0.677,,,,0.8570974291
1740460284368136452,-0.466,,563.0,,0.8578681827
1740460284375843988,-0.579,,,,0.8586389363
1740460284383551524,-0.588,,,,0.8594096899
1740460284391259060,-0.444,,,,0.8601804435
1740460284398966596,-0.642,,,,0.8609511971
1740460284406674132,-0.515,,,,0.8617219507
1740460284414381668,-0.561,,,,0.8624927043
1740460284422089204,-0.586,,,,0.8632634579
1740460284429796740,-0.289,,,,0.8640342115
1740460284437504276,-0.436,,,,0.8648049651
1740460284445211812,-0.525,,,,0.8655757187
1740460284452919348,-0.728,,,,0.8663464723
1740460284460626884,-0.947,,,,0.8671172259
1740460284468334420,-0.5760000000000001,,,,0.8678879795
1740460284476041956,-0.5640000000000001,,,,0.8686587331
1740460284483749492,-0.625,,,,0.8694294867
1740460284491457028,-0.556,,,,0.8702002403
1740460284499164564,-0.687,,,,0.8709709939
1740460284506872100,-0.529,,,,0.8717417475
1740460284514579636,-0.615,,,,0.8725125011
1740460284522287172,-0.6910000000000001,,,,0.8732832547
1740460284529994708,-0.51,,,,0.8740540083
1740460284537702244,-0.66,,,,0.8748247619
1740460284545409780,-0.549,,,,0.8755955155
1740460284553117316,-0.512,,,,0.8763662691
1740460284560824852,-0.657,,,,0.8771370227
1740460284568532388,-0.461,,,,0.8779077763
1740460284576239924,-0.544,,,,0.8786785299
1740460284583947460,-0.539,,,,0.8794492835
1740460284591654996,-0.456,,,,0.8802200371
1740460284599362532,-0.586,,,,0.8809907907
1740460284607070068,-0.417,,,,0.8817615443
1740460284614777604,-0.485,,,,0.8825322979
1740460284622485140,-0.532,,,,0.8833030515
1740460284630192676,-0.385,,,,0.8840738051
1740460284637900212,-0.598,,,,0.8848445587
1740460284645607748,-0.51,,,,0.8856153123
1740460284653315284,-0.466,,,,0.8863860659
1740460284661022820,-0.606,,,,0.8871568195
1740460284668730356,-0.48,,,,0.8879275731
1740460284676437892,-0.62,,,,0.8886983267
1740460284684145428,-0.5760000000000001,,,,0.8894690803
1740460284691852964,-0.456,,,,0.8902398339
1740460284699560500,-0.586,,,,0.8910105875
1740460284707268036,-0.436,,,,0.8917813411
1740460284714975572,-0.507,,,,0.8925520947
1740460284722683108,-0.544,,,,0.8933228483
1740460284730390644,-0.395,,,,0.8940936019
1740460284738098180,-0.5640000000000001,,,,0.8948643555
1740460284745805716,-0.449,,,,0.8956351091
1740460284753513252,-0.407,,,,0.8964058627
1740460284761220788,-0.493,,,,0.8971766163
1740460284768928324,-0.318,,,,0.8979473699
1740460284776635860,-0.449,,,,0.8987181235
1740460284784343396,-0.407,,,,0.8994888771
1740460284792050999,-0.314,102.0,,,0.9002596374
1740460284799758535,-0.468,,,,0.901030391
1740460284807466071,-0.341,,,,0.9018011446
1740460284815173607,-0.417,,,,0.9025718982
1740460284822881143,-0.444,,,,0.9033426518
1740460284830588679,-0.314,,,,0.9041134054
1740460284838296215,-0.485,,,,0.904884159
1740460284846003751,-0.38,,,,0.9056549126
1740460284853711287,-0.375,,,,0.9064256662
1740460284861418823,-0.478,,,,0.9071964198
1740460284869126359,-0.323,,,,0.9079671734
1740460284876833895,-0.463,,,,0.908737927
1740460284884541431,-0.441,,,,0.9095086806
1740460284892248967,-0.397,,,,0.9102794342
1740460284899956503,-0.542,,,,0.9110501878
1740460284907664039,-0.392,,,,0.9118209414
1740460284915371575,-0.483,,,,0.912591695
1740460284923079111,-0.5,,,,0.9133624486
1740460284930786647,-0.375,,,,0.9141332022
1740460284938494183,-0.549,,571.0,,0.9149039558
1740460284946201719,-0.439,,,,0.9156747094
1740460284953909255,-0.453,,,,0.916445463
1740460284961616791,-0.561,,,,0.9172162166
1740460284969324327,-0.407,,,,0.9179869702
1740460284977031863,-0.532,,,,0.9187577238
1740460284984739399,-0.471,,,,0.9195284774
1740460284992446935,-0.402,,,,0.920299231
1740460285000154471,-0.544,,,,0.9210699846
1740460285007862007,-0.412,,,,0.9218407382
1740460285015569543,-0.498,,,,0.9226114918
1740460285023277079,-0.485,,,,0.9233822454
1740460285030984615,-0.358,,,,0.924152999
1740460285038692151,-0.527,,,,0.9249237526
1740460285046399687,-0.414,,,,0.9256945062
1740460285054107223,-0.392,,,,0.9264652598
1740460285061814759,-0.37,,,,0.9272360134
1740460285069522295,-0.095,,,,0.928006767
1740460285077229831,-0.225,,,,0.9287775206
1740460285084937367,-0.341,,,,0.9295482742
1740460285092644903,-0.5640000000000001,,,,0.9303190278
1740460285100352439,-0.775,,,,0.9310897814
1740460285108059975,-0.404,,,,0.931860535
1740460285115767511,-0.358,,,,0.9326312886
1740460285123475047,-0.436,,,,0.9334020422
1740460285131182583,-0.365,,,,0.9341727958
1740460285138890119,-0.5,,,,0.9349435494
1740460285146597655,-0.382,,,,0.935714303
1740460285154305191,-0.402,,,,0.9364850566
1740460285162012727,-0.463,,,,0.9372558102
1740460285169720263,-0.299,,,,0.9380265638
1740460285177427799,-0.412,,,,0.9387973174
1740460285185135335,-0.326,,,,0.939568071
1740460285192842871,-0.282,,,,0.9403388246
1740460285200550407,-0.404,,,,0.9411095782
1740460285208257943,-0.242,,,,0.9418803318
1740460285215965479,-0.326,,,,0.9426510854
1740460285223673015,-0.321,,,,0.943421839
1740460285231380551,-0.213,,,,0.9441925926
1740460285239088087,-0.36,,,,0.9449633462
1740460285246795623,-0.23,,,,0.9457340998
1740460285254503159,-0.257,,,,0.9465048534
1740460285262210695,-0.343,,,,0.947275607
1740460285269918231,-0.198,,,,0.9480463606
1740460285277625767,-0.309,,,,0.9488171142
1740460285285333303,-0.267,,,,0.9495878678
1740460285293040839,-0.264,,,,0.9503586214
1740460285300748375,-0.36,,,,0.951129375
1740460285308455911,-0.22,,,,0.9519001286
1740460285316163447,-0.353,,,,0.9526708822
1740460285323870983,-0.341,,,,0.9534416358
1740460285331578519,-0.23,,,,0.9542123894
1740460285339286055,-0.372,,,,0.954983143
1740460285346993591,-0.25,,,,0.9557538966
1740460285354701192,-0.287,,,,0.9565246567
1740460285362409007,-0.355,,,,0.9572954382
1740460285370116822,-0.23,,,,0.9580662197
1740460285377824637,-0.343,,,,0.9588370012
1740460285385532452,-0.242,,,,0.9596077827
1740460285393240267,-0.213,,,,0.9603785642
1740460285400948082,-0.326,,,,0.9611493457
1740460285408655897,-0.184,,,,0.9619201272
1740460285416363712,-0.264,,,,0.9626909087
1740460285424071527,-0.25,,,,0.9634616902
1740460285431779342,-0.176,,,,0.9642324717
1740460285439487157,-0.301,,,,0.9650032532
1740460285447194972,-0.191,,,,0.9657740347
1740460285454902787,-0.264,,,,0.9665448162
1740460285462610602,-0.314,,,,0.9673155977
1740460285470318417,-0.225,,,,0.9680863792
1740460285478026232,-0.395,,,,0.9688571607
1740460285485734047,-0.299,,,,0.9696279422
1740460285493441862,-0.304,,,,0.9703987237
1740460285501149677,-0.429,,,,0.9711695052
1740460285508857492,-0.255,,,,0.9719402867
1740460285516565307,-0.348,,,,0.9727110682
1740460285524273122,-0.355,,586.0,,0.9734818497
1740460285531980937,-0.277,,,,0.9742526312
1740460285539688752,-0.397,,,,0.9750234127
1740460285547396567,-0.274,,,,0.9757941942
1740460285555104382,-0.321,,,,0.9765649757
1740460285562812197,-0.348,,,,0.9773357572
1740460285570520012,-0.228,,,,0.9781065387
1740460285578227827,-0.377,,,,0.9788773202
1740460285585935642,-0.314,,,,0.9796481017
1740460285593643457,-0.328,,,,0.9804188832
1740460285601351272,-0.424,,,,0.9811896647
1740460285609059087,-0.282,,,,0.9819604462
1740460285616766902,-0.38,,,,0.9827312277
1740460285624474717,-0.355,,,,0.9835020092
1740460285632182532,-0.328,,,,0.9842727907
1740460285639890347,-0.48,,,,0.9850435722
1740460285647598162,-0.35,,,,0.9858143537
1740460285655305977,-0.439,,,,0.9865851352
1740460285663013792,-0.507,,,,0.9873559167
1740460285670721607,-0.399,,,,0.9881266982
1740460285678429422,-0.534,,,,0.9888974797
1740460285686137237,-0.412,,,,0.9896682612
1740460285693845052,-0.284,,,,0.9904390427
1740460285701552867,-0.277,,,,0.9912098242
1740460285709260682,-0.287,,,,0.9919806057
1740460285716968497,-0.723,,,,0.9927513872
1740460285724676312,-0.839,,,,0.9935221687
1740460285732384127,-0.5640000000000001,,,,0.9942929502
1740460285740091942,-0.471,,,,0.9950637317
1740460285747799757,-0.407,,,,0.9958345132
1740460285755507572,-0.554,,,,0.9966052947
1740460285763215387,-0.525,,,,0.9973760762
1740460285770923202,-0.404,,,,0.9981468577
1740460285778631017,-0.5640000000000001,,,,0.9989176392
1740460285786338832,-0.434,,,,0.9996884207
1740460285794046647,-0.429,,,,1.0004592022
1740460285801754462,-0.498,,,,1.0012299837
1740460285809462277,-0.331,,,,1.0020007652
1740460285817170092,-0.453,,,,1.0027715467
1740460285824877907,-0.414,,,,1.0035423282
1740460285832585722,-0.328,,,,1.0043131097
1740460285840293537,-0.431,,,,1.0050838912
1740460285848001352,-0.306,,,,1.0058546727
1740460285855709167,-0.377,,,,1.0066254542
1740460285863416982,-0.38,,,,1.0073962357
1740460285871124797,-0.291,,,,1.0081670172
1740460285878832612,-0.444,,,,1.0089377987
1740460285886540427,-0.355,,,,1.0097085802
1740460285894248242,-0.387,,,,1.0104793617
1740460285901956057,-0.485,,,,1.0112501432
1740460285909663872,-0.382,,,,1.0120209247
1740460285917371731,-0.529,101.0,,,1.0127917106
1740460285925079407,-0.515,,,,1.0135624782
1740460285932787083,-0.495,,,,1.0143332458
1740460285940494759,-0.62,,,,1.0151040134
1740460285948202435,-0.515,,,,1.015874781
1740460285955910111,-0.615,,,,1.0166455486
1740460285963617787,-0.642,,,,1.0174163162
1740460285971325463,-0.5660000000000001,,,,1.0181870838
1740460285979033139,-0.6910000000000001,,,,1.0189578514
1740460285986740815,-0.591,,,,1.019728619
1740460285994448491,-0.633,,,,1.0204993866
1740460286002156167,-0.6990000000000001,,,,1.0212701542
1740460286009863843,-0.5760000000000001,,,,1.0220409218
1740460286017571519,-0.7010000000000001,,,,1.0228116894
1740460286025279195,-0.647,,,,1.023582457
1740460286032986871,-0.606,,,,1.0243532246
1740460286040694547,-0.709,,,,1.0251239922
1740460286048402223,-0.579,,,,1.0258947598
1740460286056109899,-0.655,,,,1.0266655274
1740460286063817575,-0.65,,,,1.027436295
1740460286071525251,-0.561,,,,1.0282070626
1740460286079232927,-0.684,,,,1.0289778302
1740460286086940603,-0.586,,,,1.0297485978
1740460286094648279,-0.613,,,,1.0305193654
1740460286102355955,-0.65,,,,1.031290133
1740460286110063631,-0.549,,,,1.0320609006
1740460286117771307,-0.6890000000000001,,,,1.0328316682
1740460286125478983,-0.606,,,,1.0336024358
1740460286133186659,-0.579,,,,1.0343732034
1740460286140894335,-0.704,,613.0,,1.035143971
1740460286148602011,-0.583,,,,1.0359147386
1740460286156309687,-0.655,,,,1.0366855062
1740460286164017363,-0.64,,,,1.0374562738
1740460286171725039,-0.561,,,,1.0382270414
1740460286179432715,-0.679,,,,1.038997809
1740460286187140391,-0.583,,,,1.0397685766
1740460286194848067,-0.655,,,,1.0405393442
1740460286202555743,-0.736,,,,1.0413101118
1740460286210263419,-0.62,,,,1.0420808794
1740460286217971095,-0.736,,,,1.042851647
1740460286225678771,-0.706,,,,1.0436224146
1740460286233386447,-0.6940000000000001,,,,1.0443931822
1740460286241094123,-0.775,,,,1.0451639498
1740460286248801799,-0.6890000000000001,,,,1.0459347174
1740460286256509475,-0.8190000000000001,,,,1.046705485
1740460286264217151,-0.8170000000000001,,,,1.0474762526
1740460286271924827,-0.743,,,,1.0482470202
1740460286279632503,-0.871,,,,1.0490177878
1740460286287340179,-0.797,,,,1.0497885554
1740460286295047855,-0.797,,,,1.050559323
1740460286302755531,-0.716,,,,1.0513300906
1740460286310463207,-0.522,,,,1.0521008582
1740460286318170883,-0.682,,,,1.0528716258
1740460286325878559,-0.844,,,,1.0536423934
1740460286333586235,-1.082,,,,1.054413161
1740460286341293911,-1.175,,,,1.0551839286
1740460286349001587,-0.866,,,,1.0559546962
1740460286356709263,-0.861,,,,1.0567254638
1740460286364416939,-0.895,,,,1.0574962314
1740460286372124615,-0.836,,,,1.058266999
1740460286379832291,-0.925,,,,1.0590377666
1740460286387539967,-0.8260000000000001,,,,1.0598085342
1740460286395247643,-0.839,,,,1.0605793018
1740460286402955319,-0.868,,,,1.0613500694
1740460286410662995,-0.782,,,,1.062120837
1740460286418370671,-0.8310000000000001,,,,1.0628916046
1740460286426078347,-0.743,,,,1.0636623722
1740460286433786023,-0.777,,,,1.0644331398
1740460286441493699,-0.8240000000000001,,,,1.0652039074
1740460286449201375,-0.677,,,,1.065974675
1740460286456909051,-0.765,,,,1.0667454426
1740460286464616727,-0.716,,,,1.0675162102
1740460286472324403,-0.64,,,,1.0682869778
1740460286480032096,-0.74,,,,1.0690577471
1740460286487739772,-0.635,,,,1.0698285147
1740460286495447448,-0.674,,,,1.0705992823
1740460286503155124,-0.6960000000000001,,,,1.0713700499
1740460286510862800,-0.628,,,,1.0721408175
1740460286518570476,-0.76,,,,1.0729115851
1740460286526278152,-0.711,,,,1.0736823527
1740460286533985828,-0.718,,,,1.0744531203
1740460286541693504,-0.775,,,,1.0752238879
1740460286549401180,-0.7010000000000001,,,,1.0759946555
1740460286557108856,-0.8310000000000001,,,,1.0767654231
1740460286564816532,-0.785,,,,1.0775361907
1740460286572524208,-0.75,,,,1.0783069583
1740460286580231884,-0.885,,,,1.0790777259
1740460286587939560,-0.794,,,,1.0798484935
1740460286595647236,-0.861,,,,1.0806192611
1740460286603354912,-0.853,,,,1.0813900287
1740460286611062588,-0.763,,,,1.0821607963
1740460286618770264,-0.917,,,,1.0829315639
1740460286626477940,-0.8240000000000001,,,,1.0837023315
1740460286634185616,-0.8170000000000001,,,,1.0844730991
1740460286641893292,-0.915,,,,1.0852438667
1740460286649600968,-0.797,,,,1.0860146343
1740460286657308644,-0.841,,,,1.0867854019
1740460286665016320,-0.794,,,,1.0875561695
1740460286672723996,-0.802,,,,1.0883269371
1740460286680431672,-0.905,,,,1.0890977047
1740460286688139348,-0.753,,,,1.0898684723
1740460286695847024,-0.839,,,,1.0906392399
1740460286703554700,-0.905,,,,1.0914100075
1740460286711262376,-0.8260000000000001,,,,1.0921807751
1740460286718970052,-0.9,,,,1.0929515427
1740460286726677728,-0.809,,,,1.0937223103
1740460286734385404,-0.858,,,,1.0944930779
1740460286742093080,-0.932,,,,1.0952638455
1740460286749800756,-0.841,,,,1.0960346131
1740460286757508432,-0.915,,,,1.0968053807
1740460286765216108,-0.777,,627.0,,1.0975761483
1740460286772923784,-0.726,,,,1.0983469159
1740460286780631460,-0.905,,,,1.0991176835
1740460286788339136,-0.8210000000000001,,,,1.0998884511
1740460286796046812,-0.861,,,,1.1006592187
1740460286803754488,-0.868,,,,1.1014299863
1740460286811462164,-0.792,,,,1.1022007539
1740460286819169840,-0.871,,,,1.1029715215
1740460286826877516,-0.782,,,,1.1037422891
1740460286834585192,-0.848,,,,1.1045130567
1740460286842292868,-0.89,,,,1.1052838243
1740460286850000544,-0.77,,,,1.1060545919
1740460286857708220,-0.91,,,,1.1068253595
1740460286865415896,-0.893,,,,1.1075961271
1740460286873123572,-0.91,,,,1.1083668947
1740460286880831248,-1.057,,,,1.1091376623
1740460286888538924,-0.915,,,,1.1099084299
1740460286896246600,-0.861,,,,1.1106791975
1740460286903954276,-0.804,,,,1.1114499651
1740460286911661952,-0.868,,,,1.1122207327
1740460286919369628,-1.219,,,,1.1129915003
1740460286927077304,-1.256,,,,1.1137622679
1740460286934784980,-1.131,,,,1.1145330355
1740460286942492656,-0.959,,,,1.1153038031
1740460286950200332,-0.873,,,,1.1160745707
1740460286957908008,-1.057,,,,1.1168453383
1740460286965615684,-0.956,,,,1.1176161059
1740460286973323360,-0.888,,,,1.1183868735
1740460286981031036,-0.969,,,,1.1191576411
1740460286988738712,-0.871,,,,1.1199284087
1740460286996446388,-0.986,,,,1.1206991763
1740460287004154064,-0.959,,,,1.1214699439
1740460287011861740,-0.844,,,,1.1222407115
1740460287019569416,-0.937,,,,1.1230114791
1740460287027277092,-0.8190000000000001,,,,1.1237822467
1740460287034984768,-0.846,,,,1.1245530143
1740460287042692463,-0.912,99.0,,,1.1253237838
1740460287050399930,-0.8140000000000001,,,,1.1260945305
1740460287058107397,-0.885,,,,1.1268652772
1740460287065814864,-0.8170000000000001,,,,1.1276360239
1740460287073522331,-0.8240000000000001,,,,1.1284067706
1740460287081229798,-0.893,,,,1.1291775173
1740460287088937265,-0.78,,,,1.129948264
1740460287096644732,-0.88,,,,1.1307190107
1740460287104352199,-0.846,,,,1.1314897574
1740460287112059666,-0.812,,,,1.1322605041
1740460287119767133,-0.976,,,,1.1330312508
1740460287127474600,-0.89,,,,1.1338019975
1740460287135182067,-0.92,,,,1.1345727442
1740460287142889534,-0.959,,,,1.1353434909
1740460287150597001,-0.885,,,,1.1361142376
1740460287158304468,-0.991,,,,1.1368849843
1740460287166011935,-0.907,,,,1.137655731
1740460287173719402,-0.888,,,,1.1384264777
1740460287181426869,-0.937,,,,1.1391972244
1740460287189134336,-0.851,,,,1.1399679711
1740460287196841803,-0.983,,,,1.1407387178
1740460287204549270,-0.934,,,,1.1415094645
1740460287212256737,-0.846,,,,1.1422802112
1740460287219964204,-0.974,,,,1.1430509579
1740460287227671671,-0.88,,,,1.1438217046
1740460287235379138,-0.895,,,,1.1445924513
1740460287243086605,-0.92,,,,1.145363198
1740460287250794072,-0.868,,,,1.1461339447
1740460287258501539,-0.969,,,,1.1469046914
1740460287266209006,-0.883,,,,1.1476754381
1740460287273916473,-0.905,,,,1.1484461848
1740460287281623940,-0.959,,,,1.1492169315
1740460287289331407,-0.8190000000000001,,,,1.1499876782
1740460287297038874,-0.92,,,,1.1507584249
1740460287304746341,-0.927,,,,1.1515291716
1740460287312453808,-0.88,,,,1.1522999183
1740460287320161275,-0.976,,,,1.153070665
1740460287327868742,-0.888,,,,1.1538414117
1740460287335576209,-0.925,,,,1.1546121584
1740460287343283676,-0.934,,,,1.1553829051
1740460287350991143,-0.851,,,,1.1561536518
1740460287358698610,-0.947,,,,1.1569243985
1740460287366406077,-0.89,,,,1.1576951452
1740460287374113544,-0.912,,,,1.1584658919
1740460287381821011,-0.964,,617.0,,1.1592366386
1740460287389528478,-0.861,,,,1.1600073853
1740460287397235945,-0.983,,,,1.160778132
1740460287404943412,-0.949,,,,1.1615488787
1740460287412650879,-0.851,,,,1.1623196254
1740460287420358346,-0.952,,,,1.1630903721
1740460287428065813,-0.905,,,,1.1638611188
1740460287435773280,-0.927,,,,1.1646318655
1740460287443480747,-0.898,,,,1.1654026122
1740460287451188214,-0.853,,,,1.1661733589
1740460287458895681,-0.981,,,,1.1669441056
1740460287466603148,-0.875,,,,1.1677148523
1740460287474310615,-0.782,,,,1.168485599
1740460287482018082,-0.721,,,,1.1692563457
1740460287489725549,-0.662,,,,1.1700270924
1740460287497433016,-0.971,,,,1.1707978391
1740460287505140483,-1.148,,,,1.1715685858
1740460287512847950,-1.109,,,,1.1723393325
1740460287520555417,-0.981,,,,1.1731100792
1740460287528262884,-0.782,,,,1.1738808259
1740460287535970351,-0.922,,,,1.1746515726
1740460287543677818,-0.952,,,,1.1754223193
1740460287551385285,-0.853,,,,1.176193066
1740460287559092752,-0.983,,,,1.1769638127
1740460287566800219,-0.917,,,,1.1777345594
1740460287574507686,-0.912,,,,1.1785053061
1740460287582215153,-0.954,,,,1.1792760528
1740460287589922620,-0.851,,,,1.1800467995
1740460287597630087,-0.915,,,,1.1808175462
1740460287605337570,-0.863,,,,1.1815882945
1740460287613045037,-0.839,,,,1.1823590412
1740460287620752504,-0.895,,,,1.1831297879
1740460287628459971,-0.777,,,,1.1839005346
1740460287636167438,-0.836,,,,1.1846712813
1740460287643874905,-0.839,,,,1.185442028
1740460287651582372,-0.772,,,,1.1862127747
1740460287659289839,-0.848,,,,1.1869835214
1740460287666997306,-0.77,,,,1.1877542681
1740460287674704773,-0.8290000000000001,,,,1.1885250148
1740460287682412240,-0.885,,,,1.1892957615
1740460287690119707,-0.782,,,,1.1900665082
1740460287697827174,-0.89,,,,1.1908372549
1740460287705534641,-0.885,,,,1.1916080016
1740460287713242108,-0.868,,,,1.1923787483
1740460287720949575,-0.942,,,,1.193149495
1740460287728657042,-0.868,,,,1.1939202417
1740460287736364509,-0.939,,,,1.1946909884
1740460287744071976,-0.952,,,,1.1954617351
1740460287751779443,-0.902,,,,1.1962324818
1740460287759486910,-0.974,,,,1.1970032285
1740460287767194377,-0.893,,,,1.1977739752
1740460287774901844,-0.927,,,,1.1985447219
1740460287782609311,-0.944,,,,1.1993154686
1740460287790316778,-0.846,,,,1.2000862153
1740460287798024245,-0.947,,,,1.200856962
1740460287805731712,-0.92,,,,1.2016277087
1740460287813439179,-0.895,,,,1.2023984554
1740460287821146646,-0.939,,,,1.2031692021
1740460287828854113,-0.844,,,,1.2039399488
1740460287836561580,-0.898,,,,1.2047106955
1740460287844269047,-0.871,,,,1.2054814422
1740460287851976514,-0.8190000000000001,,,,1.2062521889
1740460287859683981,-0.912,,,,1.2070229356
1740460287867391448,-0.8210000000000001,,,,1.2077936823
1740460287875098915,-0.868,,,,1.208564429
1740460287882806382,-0.934,,,,1.2093351757
1740460287890513849,-0.836,,,,1.2101059224
1740460287898221316,-0.893,,,,1.2108766691
1740460287905928783,-0.875,,,,1.2116474158
1740460287913636250,-0.88,,,,1.2124181625
1740460287921343717,-0.929,,,,1.2131889092
1740460287929051184,-0.853,,,,1.2139596559
1740460287936758651,-0.922,,,,1.2147304026
1740460287944466118,-0.883,,,,1.2155011493
1740460287952173585,-0.844,,,,1.216271896
1740460287959881052,-0.956,,,,1.2170426427
1740460287967588519,-0.868,,,,1.2178133894
1740460287975295986,-0.875,,,,1.2185841361
1740460287983003453,-0.915,,,,1.2193548828
1740460287990710920,-0.868,,,,1.2201256295
1740460287998418387,-0.942,,,,1.2208963762
1740460288006125854,-0.878,,,,1.2216671229
1740460288013833321,-0.89,,,,1.2224378696
1740460288021540788,-0.961,,640.0,,1.2232086163
1740460288029248255,-0.866,,,,1.223979363
1740460288036955722,-0.927,,,,1.2247501097
1740460288044663189,-0.898,,,,1.2255208564
1740460288052370656,-0.848,,,,1.2262916031
1740460288060078123,-0.927,,,,1.2270623498
1740460288067785590,-0.765,,,,1.2278330965
1740460288075493057,-0.679,,,,1.2286038432
1740460288083200524,-0.731,,,,1.2293745899
1740460288090907991,-0.9,,,,1.2301453366
1740460288098615458,-1.209,,,,1.2309160833
1740460288106322925,-1.111,,,,1.23168683
1740460288114030392,-0.875,,,,1.2324575767
1740460288121737859,-0.844,,,,1.2332283234
1740460288129445326,-0.858,,,,1.2339990701
1740460288137152793,-0.959,,,,1.2347698168
1740460288144860260,-0.902,,,,1.2355405635
1740460288152567727,-0.878,,,,1.2363113102
1740460288160275194,-0.976,,,,1.2370820569
1740460288167982677,-0.883,98.0,,,1.2378528052
1740460288175690562,-0.893,,,,1.2386235937
1740460288183398447,-0.898,,,,1.2393943822
1740460288191106332,-0.844,,,,1.2401651707
1740460288198814217,-0.907,,,,1.2409359592
1740460288206522102,-0.8140000000000001,,,,1.2417067477
1740460288214229987,-0.8210000000000001,,,,1.2424775362
1740460288221937872,-0.878,,,,1.2432483247
1740460288229645757,-0.777,,,,1.2440191132
1740460288237353642,-0.846,,,,1.2447899017
1740460288245061527,-0.8290000000000001,,,,1.2455606902
1740460288252769412,-0.792,,,,1.2463314787
1740460288260477297,-0.861,,,,1.2471022672
1740460288268185182,-0.794,,,,1.2478730557
1740460288275893067,-0.853,,,,1.2486438442
1740460288283600952,-0.868,,,,1.2494146327
1740460288291308837,-0.8310000000000001,,,,1.2501854212
1740460288299016722,-0.927,,,,1.2509562097
1740460288306724607,-0.866,,,,1.2517269982
1740460288314432492,-0.898,,,,1.2524977867
1740460288322140377,-0.961,,,,1.2532685752
1740460288329848262,-0.89,,,,1.2540393637
1740460288337556147,-0.961,,,,1.2548101522
1740460288345264032,-0.92,,,,1.2555809407
1740460288352971917,-0.9,,,,1.2563517292
1740460288360679802,-0.969,,,,1.2571225177
1740460288368387687,-0.868,,,,1.2578933062
1740460288376095572,-0.915,,,,1.2586640947
1740460288383803457,-0.92,,,,1.2594348832
1740460288391511342,-0.868,,,,1.2602056717
1740460288399219227,-0.947,,,,1.2609764602
1740460288406927112,-0.856,,,,1.2617472487
1740460288414634997,-0.873,,,,1.2625180372
1740460288422342882,-0.929,,,,1.2632888257
1740460288430050767,-0.844,,,,1.2640596142
1740460288437758652,-0.9,,,,1.2648304027
1740460288445466537,-0.861,,,,1.2656011912
1740460288453174422,-0.861,,,,1.2663719797
1740460288460882307,-0.925,,,,1.2671427682
1740460288468590192,-0.8260000000000001,,,,1.2679135567
1740460288476298077,-0.902,,,,1.2686843452
1740460288484005962,-0.915,,,,1.2694551337
1740460288491713847,-0.853,,,,1.2702259222
1740460288499421732,-0.937,,,,1.2709967107
1740460288507129617,-0.871,,,,1.2717674992
1740460288514837502,-0.89,,,,1.2725382877
1740460288522545387,-0.927,,,,1.2733090762
1740460288530253272,-0.851,,,,1.2740798647
1740460288537961157,-0.922,,,,1.2748506532
1740460288545669042,-0.885,,,,1.2756214417
1740460288553376927,-0.883,,,,1.2763922302
1740460288561084812,-0.944,,,,1.2771630187
1740460288568792697,-0.866,,,,1.2779338072
1740460288576500582,-0.934,,,,1.2787045957
1740460288584208467,-0.92,,,,1.2794753842
1740460288591916352,-0.873,,,,1.2802461727
1740460288599624237,-0.969,,,,1.2810169612
1740460288607332122,-0.871,,,,1.2817877497
1740460288615040007,-0.888,,,,1.2825585382
1740460288622747892,-0.956,,,,1.2833293267
1740460288630455777,-0.89,,,,1.2841001152
1740460288638163662,-0.949,,,,1.2848709037
1740460288645871547,-0.895,,626.0,,1.2856416922
1740460288653579432,-0.89,,,,1.2864124807
1740460288661287317,-0.944,,,,1.2871832692
1740460288668995202,-0.807,,,,1.2879540577
1740460288676703087,-0.765,,,,1.2887248462
1740460288684410972,-0.731,,,,1.2894956347
1740460288692118857,-0.866,,,,1.2902664232
1740460288699826742,-1.194,,,,1.2910372117
1740460288707534627,-1.204,,,,1.2918080002
1740460288715242512,-1.069,,,,1.2925787887
1740460288722950397,-0.902,,,,1.2933495772
1740460288730658302,-0.871,,,,1.2941203677
1740460288738365769,-1.069,,,,1.2948911144
1740460288746073236,-1.018,,,,1.2956618611
1740460288753780703,-0.996,,,,1.2964326078
1740460288761488170,-1.069,,,,1.2972033545
1740460288769195637,-0.981,,,,1.2979741012
1740460288776903104,-1.028,,,,1.2987448479
1740460288784610571,-0.981,,,,1.2995155946
1740460288792318038,-0.912,,,,1.3002863413
1740460288800025505,-0.988,,,,1.301057088
1740460288807732972,-0.91,,,,1.3018278347
1740460288815440439,-0.932,,,,1.3025985814
1740460288823147906,-0.939,,,,1.3033693281
1740460288830855373,-0.851,,,,1.3041400748
1740460288838562840,-0.925,,,,1.3049108215
1740460288846270307,-0.875,,,,1.3056815682
1740460288853977774,-0.853,,,,1.3064523149
1740460288861685241,-0.9,,,,1.3072230616
1740460288869392708,-0.851,,,,1.3079938083
1740460288877100175,-0.944,,,,1.308764555
1740460288884807642,-0.942,,,,1.3095353017
1740460288892515109,-0.888,,,,1.3103060484
1740460288900222576,-0.959,,,,1.3110767951
1740460288907930043,-0.937,,,,1.3118475418
1740460288915637510,-0.983,,,,1.3126182885
1740460288923344977,-0.974,,,,1.3133890352
1740460288931052444,-0.937,,,,1.3141597819
1740460288938759911,-1.025,,,,1.3149305286
1740460288946467378,-0.932,,,,1.3157012753
1740460288954174845,-0.927,,,,1.316472022
1740460288961882312,-0.983,,,,1.3172427687
1740460288969589779,-0.905,,,,1.3180135154
1740460288977297246,-0.966,,,,1.3187842621
1740460288985004713,-0.937,,,,1.3195550088
1740460288992712180,-0.927,,,,1.3203257555
1740460289000419647,-1.003,,,,1.3210965022
1740460289008127114,-0.89,,,,1.3218672489
1740460289015834581,-0.939,,,,1.3226379956
1740460289023542048,-0.978,,,,1.3234087423
1740460289031249515,-0.895,,,,1.324179489
1740460289038956982,-0.944,,,,1.3249502357
1740460289046664449,-0.88,,,,1.3257209824
1740460289054371916,-0.885,,,,1.3264917291
1740460289062079383,-0.954,,,,1.3272624758
1740460289069786850,-0.895,,,,1.3280332225
1740460289077494317,-0.917,,,,1.3288039692
1740460289085201784,-0.875,,,,1.3295747159
1740460289092909251,-0.883,,,,1.3303454626
1740460289100616718,-0.947,,,,1.3311162093
1740460289108324185,-0.844,,,,1.331886956
1740460289116031652,-0.875,,,,1.3326577027
1740460289123739119,-0.873,,,,1.3334284494
1740460289131446586,-0.8310000000000001,,,,1.3341991961
1740460289139154053,-0.912,,,,1.3349699428
1740460289146861520,-0.8240000000000001,,,,1.3357406895
1740460289154568987,-0.8240000000000001,,,,1.3365114362
1740460289162276454,-0.846,,,,1.3372821829
1740460289169983921,-0.767,,,,1.3380529296
1740460289177691388,-0.873,,,,1.3388236763
1740460289185398855,-0.841,,,,1.339594423
1740460289193106322,-0.797,,,,1.3403651697
1740460289200813789,-0.853,,,,1.3411359164
1740460289208521256,-0.785,,,,1.3419066631
1740460289216228723,-0.853,,,,1.3426774098
1740460289223936190,-0.834,,,,1.3434481565
1740460289231643657,-0.767,,,,1.3442189032
1740460289239351124,-0.863,,,,1.3449896499
1740460289247058591,-0.797,,,,1.3457603966
1740460289254766058,-0.807,,,,1.3465311433
1740460289262473525,-0.836,,613.0,,1.34730189
1740460289270180992,-0.772,,,,1.3480726367
1740460289277888459,-0.8240000000000001,,,,1.3488433834
1740460289285595926,-0.669,,,,1.3496141301
1740460289293303409,-0.62,98.0,,,1.3503848784
1740460289301011085,-0.8310000000000001,,,,1.351155646
1740460289308718761,-0.944,,,,1.3519264136
1740460289316426437,-1.126,,,,1.3526971812
1740460289324134113,-1.015,,,,1.3534679488
1740460289331841789,-0.745,,,,1.3542387164
1740460289339549465,-0.8240000000000001,,,,1.355009484
1740460289347257141,-0.871,,,,1.3557802516
1740460289354964817,-0.907,,,,1.3565510192
1740460289362672493,-0.915,,,,1.3573217868
1740460289370380169,-0.856,,,,1.3580925544
1740460289378087845,-0.932,,,,1.358863322
1740460289385795521,-0.858,,,,1.3596340896
1740460289393503197,-0.851,,,,1.3604048572
1740460289401210873,-0.895,,,,1.3611756248
1740460289408918549,-0.785,,,,1.3619463924
1740460289416626225,-0.861,,,,1.36271716
1740460289424333901,-0.846,,,,1.3634879276
1740460289432041577,-0.78,,,,1.3642586952
1740460289439749253,-0.866,,,,1.3650294628
1740460289447456929,-0.792,,,,1.3658002304
1740460289455164605,-0.834,,,,1.366570998
1740460289462872281,-0.871,,,,1.3673417656
1740460289470579957,-0.775,,,,1.3681125332
1740460289478287633,-0.846,,,,1.3688833008
1740460289485995309,-0.804,,,,1.3696540684
1740460289493702985,-0.802,,,,1.370424836
1740460289501410661,-0.863,,,,1.3711956036
1740460289509118337,-0.809,,,,1.3719663712
1740460289516826013,-0.915,,,,1.3727371388
1740460289524533689,-0.902,,,,1.3735079064
1740460289532241365,-0.871,,,,1.374278674
1740460289539949041,-0.976,,,,1.3750494416
1740460289547656717,-0.875,,,,1.3758202092
1740460289555364393,-0.895,,,,1.3765909768
1740460289563072069,-0.944,,,,1.3773617444
1740460289570779745,-0.885,,,,1.378132512
1740460289578487421,-0.939,,,,1.3789032796
1740460289586195097,-0.863,,,,1.3796740472
1740460289593902773,-0.871,,,,1.3804448148
1740460289601610449,-0.937,,,,1.3812155824
1740460289609318125,-0.844,,,,1.38198635
1740460289617025801,-0.885,,,,1.3827571176
1740460289624733477,-0.848,,,,1.3835278852
1740460289632441153,-0.8310000000000001,,,,1.3842986528
1740460289640148829,-0.905,,,,1.3850694204
1740460289647856505,-0.802,,,,1.385840188
1740460289655564181,-0.866,,,,1.3866109556
1740460289663271857,-0.893,,,,1.3873817232
1740460289670979533,-0.8190000000000001,,,,1.3881524908
1740460289678687209,-0.91,,,,1.3889232584
1740460289686394885,-0.851,,,,1.389694026
1740460289694102561,-0.858,,,,1.3904647936
1740460289701810237,-0.915,,,,1.3912355612
1740460289709517913,-0.8240000000000001,,,,1.3920063288
1740460289717225589,-0.89,,,,1.3927770964
1740460289724933265,-0.883,,,,1.393547864
1740460289732640941,-0.861,,,,1.3943186316
1740460289740348617,-0.922,,,,1.3950893992
1740460289748056293,-0.853,,,,1.3958601668
1740460289755763969,-0.915,,,,1.3966309344
1740460289763471645,-0.895,,,,1.397401702
1740460289771179321,-0.8310000000000001,,,,1.3981724696
1740460289778886997,-0.944,,,,1.3989432372
1740460289786594673,-0.871,,,,1.3997140048
1740460289794302349,-0.895,,,,1.4004847724
1740460289802010025,-0.983,,,,1.40125554
1740460289809717701,-0.888,,,,1.4020263076
1740460289817425377,-0.939,,,,1.4027970752
1740460289825133053,-0.925,,,,1.4035678428
1740460289832840729,-0.917,,,,1.4043386104
1740460289840548405,-0.981,,,,1.405109378
1740460289848256081,-0.895,,589.0,,1.4058801456
1740460289855963774,-0.964,100.0,,,1.4066509149
1740460289863671450,-0.952,,,,1.4074216825
1740460289871379126,-0.878,,,,1.4081924501
1740460289879086802,-0.978,,,,1.4089632177
1740460289886794478,-0.88,,,,1.4097339853
1740460289894502154,-0.858,,,,1.4105047529
1740460289902209830,-0.853,,,,1.4112755205
1740460289909917506,-0.66,,,,1.4120462881
1740460289917625182,-0.706,,,,1.4128170557
1740460289925332858,-0.8310000000000001,,,,1.4135878233
1740460289933040534,-1.052,,,,1.4143585909
1740460289940748210,-1.16,,,,1.4151293585
1740460289948455886,-0.851,,,,1.4159001261
1740460289956163562,-0.787,,,,1.4166708937
1740460289963871238,-0.844,,,,1.4174416613
1740460289971578914,-0.807,,,,1.4182124289
1740460289979286590,-0.873,,,,1.4189831965
1740460289986994266,-0.8240000000000001,,,,1.4197539641
1740460289994701942,-0.858,,,,1.4205247317
1740460290002409618,-0.839,,,,1.4212954993
1740460290010117294,-0.738,,,,1.4220662669
1740460290017824970,-0.848,,,,1.4228370345
1740460290025532646,-0.775,,,,1.4236078021
1740460290033240322,-0.748,,,,1.4243785697
1740460290040947998,-0.846,,,,1.4251493373
1740460290048655674,-0.726,,,,1.4259201049
1740460290056363350,-0.745,,,,1.4266908725
1740460290064071026,-0.755,,,,1.4274616401
1740460290071778702,-0.718,,,,1.4282324077
1740460290079486378,-0.763,,,,1.4290031753
1740460290087194054,-0.662,,,,1.4297739429
1740460290094901730,-0.738,,,,1.4305447105
1740460290102609406,-0.775,,,,1.4313154781
1740460290110317082,-0.664,,,,1.4320862457
1740460290118024758,-0.78,,,,1.4328570133
1740460290125732434,-0.77,,,,1.4336277809
1740460290133440110,-0.75,,,,1.4343985485
1740460290141147786,-0.799,,,,1.4351693161
1740460290148855462,-0.718,,,,1.4359400837
1740460290156563138,-0.797,,,,1.4367108513
1740460290164270814,-0.782,,,,1.4374816189
1740460290171978490,-0.733,,,,1.4382523865
1740460290179686166,-0.804,,,,1.4390231541
1740460290187393842,-0.711,,,,1.4397939217
1740460290195101518,-0.777,,,,1.4405646893
1740460290202809194,-0.797,,,,1.4413354569
1740460290210516870,-0.6890000000000001,,,,1.4421062245
1740460290218224546,-0.792,,,,1.4428769921
1740460290225932222,-0.723,,,,1.4436477597
1740460290233639898,-0.6890000000000001,,,,1.4444185273
1740460290241347574,-0.75,,,,1.4451892949
1740460290249055250,-0.667,,,,1.4459600625
1740460290256762926,-0.763,,,,1.4467308301
1740460290264470602,-0.755,,,,1.4475015977
1740460290272178278,-0.7010000000000001,,,,1.4482723653
1740460290279885954,-0.775,,,,1.4490431329
1740460290287593630,-0.677,,,,1.4498139005
1740460290295301306,-0.733,,,,1.4505846681
1740460290303008982,-0.758,,,,1.4513554357
1740460290310716658,-0.667,,,,1.4521262033
1740460290318424334,-0.767,,,,1.4528969709
1740460290326132010,-0.711,,,,1.4536677385
1740460290333839686,-0.728,,,,1.4544385061
1740460290341547362,-0.809,,,,1.4552092737
1740460290349255038,-0.711,,,,1.4559800413
1740460290356962714,-0.785,,,,1.4567508089
1740460290364670390,-0.765,,,,1.4575215765
1740460290372378066,-0.726,,,,1.4582923441
1740460290380085742,-0.787,,,,1.4590631117
1740460290387793418,-0.672,,,,1.4598338793
1740460290395501094,-0.745,,,,1.4606046469
1740460290403208770,-0.799,,,,1.4613754145
1740460290410916446,-0.728,,,,1.4621461821
1740460290418624141,-0.809,,,,1.4629169516
1740460290426331608,-0.74,,,,1.4636876983
1740460290434039075,-0.765,,581.0,,1.464458445
1740460290441746542,-0.8170000000000001,,,,1.4652291917
1740460290449454009,-0.716,,,,1.4659999384
1740460290457161476,-0.8240000000000001,,,,1.4667706851
1740460290464868943,-0.785,,,,1.4675414318
1740460290472576410,-0.74,,,,1.4683121785
1740460290480283877,-0.841,,,,1.4690829252
1740460290487991344,-0.743,,,,1.4698536719
1740460290495698811,-0.794,,,,1.4706244186
1740460290503406278,-0.809,,,,1.4713951653
1740460290511113745,-0.682,,,,1.472165912
1740460290518821212,-0.63,,,,1.4729366587
1740460290526528679,-0.488,,,,1.4737074054
1740460290534236146,-0.645,,,,1.4744781521
1740460290541943613,-0.952,,,,1.4752488988
1740460290549651080,-1.04,,,,1.4760196455
1740460290557358547,-1.025,,,,1.4767903922
1740460290565066014,-0.772,,,,1.4775611389
1740460290572773481,-0.755,,,,1.4783318856
1740460290580480948,-0.922,,,,1.4791026323
1740460290588188415,-0.804,,,,1.479873379
1740460290595895882,-0.871,,,,1.4806441257
1740460290603603349,-0.905,,,,1.4814148724
1740460290611310816,-0.839,,,,1.4821856191
1740460290619018283,-0.934,,,,1.4829563658
1740460290626725750,-0.856,,,,1.4837271125
1740460290634433217,-0.873,,,,1.4844978592
1740460290642140684,-0.917,,,,1.4852686059
1740460290649848151,-0.8190000000000001,,,,1.4860393526
1740460290657555618,-0.9,,,,1.4868100993
1740460290665263085,-0.853,,,,1.487580846
1740460290672970552,-0.844,,,,1.4883515927
1740460290680678019,-0.927,,,,1.4891223394
1740460290688385486,-0.8290000000000001,,,,1.4898930861
1740460290696092953,-0.917,,,,1.4906638328
1740460290703800420,-0.934,,,,1.4914345795
1740460290711507887,-0.888,,,,1.4922053262
1740460290719215354,-1.013,,,,1.4929760729
1740460290726922821,-0.952,,,,1.4937468196
1740460290734630288,-1.003,,,,1.4945175663
1740460290742337755,-1.059,,,,1.495288313
1740460290750045222,-0.976,,,,1.4960590597
1740460290757752689,-1.086,,,,1.4968298064
1740460290765460156,-1.057,,,,1.4976005531
1740460290773167623,-1.069,,,,1.4983712998
1740460290780875090,-1.16,,,,1.4991420465
1740460290788582557,-1.094,,,,1.4999127932
1740460290796290024,-1.216,,,,1.5006835399
1740460290803997491,-1.202,,,,1.5014542866
1740460290811704958,-1.148,,,,1.5022250333
1740460290819412425,-1.278,,,,1.50299578
1740460290827119892,-1.182,,,,1.5037665267
1740460290834827359,-1.202,,,,1.5045372734
1740460290842534826,-1.209,,,,1.5053080201
1740460290850242293,-1.111,,,,1.5060787668
1740460290857949760,-1.241,,,,1.5068495135
1740460290865657227,-1.182,,,,1.5076202602
1740460290873364694,-1.192,,,,1.5083910069
1740460290881072161,-1.317,,,,1.5091617536
1740460290888779628,-1.266,,,,1.5099325003
1740460290896487095,-1.43,,,,1.510703247
1740460290904194562,-1.489,,,,1.5114739937
1740460290911902029,-1.467,,,,1.5122447404
1740460290919609496,-1.562,,,,1.5130154871
1740460290927316963,-1.462,,,,1.5137862338
1740460290935024430,-1.508,,,,1.5145569805
1740460290942731897,-1.489,,,,1.5153277272
1740460290950439364,-1.391,,,,1.5160984739
1740460290958146831,-1.555,,,,1.5168692206
1740460290965854298,-1.518,,,,1.5176399673
1740460290973561765,-1.543,,,,1.518410714
1740460290981269248,-1.616,100.0,,,1.5191814623
1740460290988977133,-1.496,,,,1.5199522508
1740460290996685018,-1.597,,,,1.5207230393
1740460291004392903,-1.57,,,,1.5214938278
1740460291012100788,-1.531,,,,1.5222646163
1740460291019808673,-1.663,,,,1.5230354048
1740460291027516558,-1.575,,594.0,,1.5238061933
1740460291035224443,-1.629,,,,1.5245769818
1740460291042932328,-1.626,,,,1.5253477703
1740460291050640213,-1.531,,,,1.5261185588
1740460291058348098,-1.685,,,,1.5268893473
1740460291066055983,-1.639,,,,1.5276601358
1740460291073763868,-1.634,,,,1.5284309243
1740460291081471753,-1.68,,,,1.5292017128
1740460291089179638,-1.555,,,,1.5299725013
1740460291096887523,-1.616,,,,1.5307432898
1740460291104595408,-1.513,,,,1.5315140783
1740460291112303293,-1.396,,,,1.5322848668
1740460291120011178,-1.364,,,,1.5330556553
1740460291127719063,-1.136,,,,1.5338264438
1740460291135426948,-1.275,,,,1.5345972323
1740460291143134833,-1.481,,,,1.5353680208
1740460291150842718,-1.572,,,,1.5361388093
1740460291158550603,-1.678,,,,1.5369095978
1740460291166258488,-1.388,,,,1.5376803863
1740460291173966373,-1.361,,,,1.5384511748
1740460291181674258,-1.496,,,,1.5392219633
1740460291189382143,-1.366,,,,1.5399927518
1740460291197090028,-1.472,,,,1.5407635403
1740460291204797913,-1.447,,,,1.5415343288
1740460291212505798,-1.43,,,,1.5423051173
1740460291220213683,-1.528,,,,1.5430759058
1740460291227921568,-1.361,,,,1.5438466943
1740460291235629453,-1.423,,,,1.5446174828
1740460291243337338,-1.41,,,,1.5453882713
1740460291251045223,-1.297,,,,1.5461590598
1740460291258753108,-1.413,,,,1.5469298483
1740460291266460993,-1.27,,,,1.5477006368
1740460291274168878,-1.261,,,,1.5484714253
1740460291281876763,-1.288,,,,1.5492422138
1740460291289584648,-1.14,,,,1.5500130023
1740460291297292533,-1.261,,,,1.5507837908
1740460291305000418,-1.177,,,,1.5515545793
1740460291312708303,-1.126,,,,1.5523253678
1740460291320416188,-1.261,,,,1.5530961563
1740460291328124073,-1.158,,,,1.5538669448
1740460291335831958,-1.236,,,,1.5546377333
1740460291343539843,-1.199,,,,1.5554085218
1740460291351247728,-1.094,,,,1.5561793103
1740460291358955613,-1.221,,,,1.5569500988
1740460291366663498,-1.113,,,,1.5577208873
1740460291374371383,-1.145,,,,1.5584916758
1740460291382079268,-1.207,,,,1.5592624643
1740460291389787153,-1.089,,,,1.5600332528
1740460291397495038,-1.192,,,,1.5608040413
1740460291405202923,-1.123,,,,1.5615748298
1740460291412910808,-1.116,,,,1.5623456183
1740460291420618693,-1.214,,,,1.5631164068
1740460291428326578,-1.072,,,,1.5638871953
1740460291436034463,-1.153,,,,1.5646579838
1740460291443742348,-1.14,,,,1.5654287723
1740460291451450233,-1.069,,,,1.5661995608
1740460291459158118,-1.194,,,,1.5669703493
1740460291466866003,-1.074,,,,1.5677411378
1740460291474573888,-1.099,,,,1.5685119263
1740460291482281773,-1.133,,,,1.5692827148
1740460291489989658,-1.02,,,,1.5700535033
1740460291497697543,-1.165,,,,1.5708242918
1740460291505405428,-1.118,,,,1.5715950803
1740460291513113313,-1.113,,,,1.5723658688
1740460291520821198,-1.214,,,,1.5731366573
1740460291528529083,-1.109,,,,1.5739074458
1740460291536236968,-1.234,,,,1.5746782343
1740460291543944871,-1.229,,,,1.5754490246
1740460291551652338,-1.16,,,,1.5762197713
1740460291559359805,-1.278,,,,1.576990518
1740460291567067272,-1.158,,,,1.5777612647
1740460291574774739,-1.219,,,,1.5785320114
1740460291582482206,-1.278,,,,1.5793027581
1740460291590189673,-1.19,,,,1.5800735048
1740460291597897140,-1.332,,,,1.5808442515
1740460291605604607,-1.236,,,,1.5816149982
1740460291613312074,-1.197,,,,1.5823857449
1740460291621019541,-1.307,,,,1.5831564916
1740460291628727008,-1.212,,604.0,,1.5839272383
1740460291636434475,-1.302,,,,1.584697985
1740460291644141942,-1.31,,,,1.5854687317
1740460291651849409,-1.258,,,,1.5862394784
1740460291659556876,-1.369,,,,1.5870102251
1740460291667264343,-1.29,,,,1.5877809718
1740460291674971810,-1.315,,,,1.5885517185
1740460291682679277,-1.337,,,,1.5893224652
1740460291690386744,-1.268,,,,1.5900932119
1740460291698094211,-1.293,,,,1.5908639586
1740460291705801678,-1.077,,,,1.5916347053
1740460291713509145,-1.025,,,,1.592405452
1740460291721216612,-1.226,,,,1.5931761987
1740460291728924079,-1.366,,,,1.5939469454
1740460291736631546,-1.602,,,,1.5947176921
1740460291744339013,-1.481,,,,1.5954884388
1740460291752046480,-1.256,,,,1.5962591855
1740460291759753947,-1.339,,,,1.5970299322
1740460291767461414,-1.295,,,,1.5978006789
1740460291775168881,-1.324,,,,1.5985714256
1740460291782876348,-1.351,,,,1.5993421723
1740460291790583815,-1.29,,,,1.600112919
1740460291798291282,-1.366,,,,1.6008836657
1740460291805998749,-1.278,,,,1.6016544124
1740460291813706216,-1.273,,,,1.6024251591
1740460291821413683,-1.324,,,,1.6031959058
1740460291829121150,-1.214,,,,1.6039666525
1740460291836828617,-1.28,,,,1.6047373992
1740460291844536084,-1.263,,,,1.6055081459
1740460291852243551,-1.212,,,,1.6062788926
1740460291859951018,-1.278,,,,1.6070496393
1740460291867658485,-1.19,,,,1.607820386
1740460291875365952,-1.214,,,,1.6085911327
1740460291883073419,-1.224,,,,1.6093618794
1740460291890780886,-1.158,,,,1.6101326261
1740460291898488353,-1.234,,,,1.6109033728
1740460291906195820,-1.194,,,,1.6116741195
1740460291913903287,-1.216,,,,1.6124448662
1740460291921610754,-1.273,,,,1.6132156129
1740460291929318221,-1.207,,,,1.6139863596
1740460291937025688,-1.29,,,,1.6147571063
1740460291944733155,-1.266,,,,1.615527853
1740460291952440622,-1.231,,,,1.6162985997
1740460291960148089,-1.307,,,,1.6170693464
1740460291967855556,-1.229,,,,1.6178400931
1740460291975563023,-1.27,,,,1.6186108398
1740460291983270490,-1.278,,,,1.6193815865
1740460291990977957,-1.221,,,,1.6201523332
1740460291998685424,-1.3,,,,1.6209230799
1740460292006392891,-1.234,,,,1.6216938266
1740460292014100358,-1.256,,,,1.6224645733
1740460292021807825,-1.3,,,,1.62323532
1740460292029515292,-1.207,,,,1.6240060667
1740460292037222759,-1.28,,,,1.6247768134
1740460292044930226,-1.243,,,,1.6255475601
1740460292052637693,-1.216,,,,1.6263183068
1740460292060345160,-1.288,,,,1.6270890535
1740460292068052627,-1.197,,,,1.6278598002
1740460292075760094,-1.236,,,,1.6286305469
1740460292083467561,-1.224,,,,1.6294012936
1740460292091175028,-1.167,,,,1.6301720403
1740460292098882495,-1.261,,,,1.630942787
1740460292106589980,-1.185,99.0,,,1.6317135355
1740460292114297586,-1.221,,,,1.6324842961
1740460292122005192,-1.266,,,,1.6332550567
1740460292129712798,-1.177,,,,1.6340258173
1740460292137420404,-1.27,,,,1.6347965779
1740460292145128010,-1.221,,,,1.6355673385
1740460292152835616,-1.194,,,,1.6363380991
1740460292160543222,-1.268,,,,1.6371088597
1740460292168250828,-1.17,,,,1.6378796203
1740460292175958434,-1.246,,,,1.6386503809
1740460292183666040,-1.243,,,,1.6394211415
1740460292191373646,-1.177,,,,1.6401919021
1740460292199081252,-1.275,,,,1.6409626627
1740460292206788858,-1.197,,,,1.6417334233
1740460292214496464,-1.224,,,,1.6425041839
1740460292222204070,-1.256,,,,1.6432749445
1740460292229911676,-1.165,,,,1.6440457051
1740460292237619282,-1.256,,610.0,,1.6448164657
1740460292245326888,-1.19,,,,1.6455872263
1740460292253034494,-1.177,,,,1.6463579869
1740460292260742100,-1.253,,,,1.6471287475
1740460292268449706,-1.14,,,,1.6478995081
1740460292276157312,-1.192,,,,1.6486702687
1740460292283864918,-1.069,,,,1.6494410293
1740460292291572524,-0.895,,,,1.6502117899
1740460292299280130,-1.028,,,,1.6509825505
1740460292306987736,-1.126,,,,1.6517533111
1740460292314695342,-1.398,,,,1.6525240717
1740460292322402948,-1.472,,,,1.6532948323
1740460292330110554,-1.182,,,,1.6540655929
1740460292337818160,-1.167,,,,1.6548363535
1740460292345525766,-1.158,,,,1.6556071141
1740460292353233372,-1.187,,,,1.6563778747
1740460292360940978,-1.239,,,,1.6571486353
1740460292368648584,-1.131,,,,1.6579193959
1740460292376356190,-1.236,,,,1.6586901565
1740460292384063796,-1.192,,,,1.6594609171
1740460292391771402,-1.113,,,,1.6602316777
1740460292399479008,-1.209,,,,1.6610024383
1740460292407186614,-1.094,,,,1.6617731989
1740460292414894220,-1.131,,,,1.6625439595
1740460292422601826,-1.15,,,,1.6633147201
1740460292430309432,-1.057,,,,1.6640854807
1740460292438017038,-1.16,,,,1.6648562413
1740460292445724644,-1.064,,,,1.6656270019
1740460292453432250,-1.059,,,,1.6663977625
1740460292461139856,-1.136,,,,1.6671685231
1740460292468847462,-1.018,,,,1.6679392837
1740460292476555068,-1.116,,,,1.6687100443
1740460292484262674,-1.089,,,,1.6694808049
1740460292491970280,-1.055,,,,1.6702515655
1740460292499677886,-1.16,,,,1.6710223261
1740460292507385492,-1.037,,,,1.6717930867
1740460292515093098,-1.118,,,,1.6725638473
1740460292522800704,-1.148,,,,1.6733346079
1740460292530508310,-1.05,,,,1.6741053685
1740460292538215916,-1.172,,,,1.6748761291
1740460292545923522,-1.079,,,,1.6756468897
1740460292553631128,-1.086,,,,1.6764176503
1740460292561338734,-1.16,,,,1.6771884109
1740460292569046340,-1.032,,,,1.6779591715
1740460292576753946,-1.136,,,,1.6787299321
1740460292584461552,-1.106,,,,1.6795006927
1740460292592169158,-1.067,,,,1.6802714533
1740460292599876764,-1.187,,,,1.6810422139
1740460292607584370,-1.074,,,,1.6818129745
1740460292615291976,-1.136,,,,1.6825837351
1740460292622999582,-1.165,,,,1.6833544957
1740460292630707188,-1.077,,,,1.6841252563
1740460292638414794,-1.172,,,,1.6848960169
1740460292646122400,-1.074,,,,1.6856667775
1740460292653830006,-1.074,,,,1.6864375381
1740460292661537612,-1.121,,,,1.6872082987
1740460292669245259,-1.01,,,,1.6879790634
1740460292676952795,-1.118,,,,1.688749817
1740460292684660331,-1.084,,,,1.6895205706
1740460292692367867,-1.059,,,,1.6902913242
1740460292700075403,-1.158,,,,1.6910620778
1740460292707782939,-1.055,,,,1.6918328314
1740460292715490475,-1.136,,,,1.692603585
1740460292723198011,-1.143,,,,1.6933743386
1740460292730905547,-1.064,,,,1.6941450922
1740460292738613083,-1.177,,,,1.6949158458
1740460292746320619,-1.082,,,,1.6956865994
1740460292754028155,-1.101,,,,1.696457353
1740460292761735691,-1.158,,,,1.6972281066
1740460292769443227,-1.062,,,,1.6979988602
1740460292777150763,-1.17,,,,1.6987696138
1740460292784858299,-1.109,,,,1.6995403674
1740460292792565835,-1.086,,,,1.700311121
1740460292800273371,-1.192,,,,1.7010818746
1740460292807980907,-1.082,,,,1.7018526282
1740460292815688443,-1.155,,,,1.7026233818
1740460292823395979,-1.167,,,,1.7033941354
1740460292831103515,-1.101,,,,1.704164889
1740460292838811051,-1.209,,,,1.7049356426
1740460292846518587,-1.116,,,,1.7057063962
1740460292854226123,-1.15,,,,1.7064771498
1740460292861933659,-1.209,,623.0,,1.7072479034
1740460292869641195,-1.062,,,,1.708018657
1740460292877348731,-1.028,,,,1.7087894106
1740460292885056267,-0.873,,,,1.7095601642
1740460292892763803,-0.944,,,,1.7103309178
1740460292900471339,-1.305,,,,1.7111016714
1740460292908178875,-1.405,,,,1.711872425
1740460292915886411,-1.366,,,,1.7126431786
1740460292923593947,-1.136,,,,1.7134139322
1740460292931301483,-1.064,,,,1.7141846858
1740460292939009019,-1.246,,,,1.7149554394
1740460292946716555,-1.15,,,,1.715726193
1740460292954424091,-1.177,,,,1.7164969466
1740460292962131627,-1.239,,,,1.7172677002
1740460292969839163,-1.143,,,,1.7180384538
1740460292977546699,-1.226,,,,1.7188092074
1740460292985254235,-1.158,,,,1.719579961
1740460292992961771,-1.133,,,,1.7203507146
1740460293000669307,-1.202,,,,1.7211214682
1740460293008376843,-1.091,,,,1.7218922218
1740460293016084379,-1.155,,,,1.7226629754
1740460293023791915,-1.136,,,,1.723433729
1740460293031499451,-1.082,,,,1.7242044826
1740460293039206987,-1.18,,,,1.7249752362
1740460293046914523,-1.089,,,,1.7257459898
1740460293054622059,-1.138,,,,1.7265167434
1740460293062329595,-1.172,,,,1.727287497
1740460293070037131,-1.094,,,,1.7280582506
1740460293077744667,-1.214,,,,1.7288290042
1740460293085452203,-1.16,,,,1.7295997578
1740460293093159739,-1.16,,,,1.7303705114
1740460293100867275,-1.246,,,,1.731141265
1740460293108574811,-1.158,,,,1.7319120186
1740460293116282347,-1.261,,,,1.7326827722
1740460293123989883,-1.251,,,,1.7334535258
1740460293131697419,-1.202,,,,1.7342242794
1740460293139404955,-1.302,,,,1.734995033
1740460293147112491,-1.207,,,,1.7357657866
1740460293154820027,-1.246,,,,1.7365365402
1740460293162527563,-1.27,,,,1.7373072938
1740460293170235099,-1.19,,,,1.7380780474
1740460293177942635,-1.285,,,,1.738848801
1740460293185650171,-1.209,,,,1.7396195546
1740460293193357707,-1.216,,,,1.7403903082
1740460293201065243,-1.283,,,,1.7411610618
1740460293208772779,-1.175,,,,1.7419318154
1740460293216480315,-1.261,,,,1.742702569
1740460293224187851,-1.236,,,,1.7434733226
1740460293231895452,-1.187,99.0,,,1.7442440827
1740460293239603128,-1.278,,,,1.7450148503
1740460293247310804,-1.182,,,,1.7457856179
1740460293255018480,-1.239,,,,1.7465563855
1740460293262726156,-1.263,,,,1.7473271531
1740460293270433832,-1.19,,,,1.7480979207
1740460293278141508,-1.297,,,,1.7488686883
1740460293285849184,-1.231,,,,1.7496394559
1740460293293556860,-1.239,,,,1.7504102235
1740460293301264536,-1.3,,,,1.7511809911
1740460293308972212,-1.216,,,,1.7519517587
1740460293316679888,-1.307,,,,1.7527225263
1740460293324387564,-1.263,,,,1.7534932939
1740460293332095240,-1.221,,,,1.7542640615
1740460293339802916,-1.307,,,,1.7550348291
1740460293347510592,-1.207,,,,1.7558055967
1740460293355218268,-1.266,,,,1.7565763643
1740460293362925944,-1.28,,,,1.7573471319
1740460293370633620,-1.204,,,,1.7581178995
1740460293378341296,-1.295,,,,1.7588886671
1740460293386048972,-1.219,,,,1.7596594347
1740460293393756648,-1.239,,,,1.7604302023
1740460293401464324,-1.297,,,,1.7612009699
1740460293409172000,-1.202,,,,1.7619717375
1740460293416879676,-1.288,,,,1.7627425051
1740460293424587352,-1.239,,,,1.7635132727
1740460293432295028,-1.214,,,,1.7642840403
1740460293440002704,-1.3,,,,1.7650548079
1740460293447710380,-1.197,,,,1.7658255755
1740460293455418056,-1.219,,,,1.7665963431
1740460293463125732,-1.099,,,,1.7673671107
1740460293470833408,-0.932,,611.0,,1.7681378783
1740460293478541084,-1.106,,,,1.7689086459
1740460293486248760,-1.253,,,,1.7696794135
1740460293493956436,-1.499,,,,1.7704501811
1740460293501664112,-1.535,,,,1.7712209487
1740460293509371788,-1.246,,,,1.7719917163
1740460293517079464,-1.273,,,,1.7727624839
1740460293524787140,-1.29,,,,1.7735332515
1740460293532494816,-1.273,,,,1.7743040191
1740460293540202492,-1.347,,,,1.7750747867
1740460293547910168,-1.278,,,,1.7758455543
1740460293555617844,-1.351,,,,1.7766163219
1740460293563325520,-1.329,,,,1.7773870895
1740460293571033196,-1.258,,,,1.7781578571
1740460293578740872,-1.339,,,,1.7789286247
1740460293586448548,-1.234,,,,1.7796993923
1740460293594156224,-1.258,,,,1.7804701599
1740460293601863900,-1.293,,,,1.7812409275
1740460293609571576,-1.185,,,,1.7820116951
1740460293617279252,-1.268,,,,1.7827824627
1740460293624986928,-1.209,,,,1.7835532303
1740460293632694604,-1.19,,,,1.7843239979
1740460293640402280,-1.263,,,,1.7850947655
1740460293648109956,-1.158,,,,1.7858655331
1740460293655817632,-1.246,,,,1.7866363007
1740460293663525308,-1.246,,,,1.7874070683
1740460293671232984,-1.192,,,,1.7881778359
1740460293678940660,-1.297,,,,1.7889486035
1740460293686648336,-1.221,,,,1.7897193711
1740460293694356012,-1.27,,,,1.7904901387
1740460293702063688,-1.315,,,,1.7912609063
1740460293709771364,-1.234,,,,1.7920316739
1740460293717479040,-1.342,,,,1.7928024415
1740460293725186716,-1.29,,,,1.7935732091
1740460293732894392,-1.28,,,,1.7943439767
1740460293740602068,-1.356,,,,1.7951147443
1740460293748309744,-1.253,,,,1.7958855119
1740460293756017420,-1.324,,,,1.7966562795
1740460293763725096,-1.315,,,,1.7974270471
1740460293771432772,-1.266,,,,1.7981978147
1740460293779140448,-1.366,,,,1.7989685823
1740460293786848124,-1.283,,,,1.7997393499
1740460293794555819,-1.317,100.0,,,1.8005101194
1740460293802263286,-1.347,,,,1.8012808661
1740460293809970753,-1.275,,,,1.8020516128
1740460293817678220,-1.374,,,,1.8028223595
1740460293825385687,-1.312,,,,1.8035931062
1740460293833093154,-1.31,,,,1.8043638529
1740460293840800621,-1.376,,,,1.8051345996
1740460293848508088,-1.288,,,,1.8059053463
1740460293856215555,-1.371,,,,1.806676093
1740460293863923022,-1.349,,,,1.8074468397
1740460293871630489,-1.305,,,,1.8082175864
1740460293879337956,-1.403,,,,1.8089883331
1740460293887045423,-1.32,,,,1.8097590798
1740460293894752890,-1.364,,,,1.8105298265
1740460293902460357,-1.388,,,,1.8113005732
1740460293910167824,-1.317,,,,1.8120713199
1740460293917875291,-1.413,,,,1.8128420666
1740460293925582758,-1.354,,,,1.8136128133
1740460293933290225,-1.374,,,,1.81438356
1740460293940997692,-1.452,,,,1.8151543067
1740460293948705159,-1.359,,,,1.8159250534
1740460293956412626,-1.437,,,,1.8166958001
1740460293964120093,-1.423,,,,1.8174665468
1740460293971827560,-1.391,,,,1.8182372935
1740460293979535027,-1.474,,,,1.8190080402
1740460293987242494,-1.383,,,,1.8197787869
1740460293994949961,-1.437,,,,1.8205495336
1740460294002657428,-1.462,,,,1.8213202803
1740460294010364895,-1.383,,,,1.822091027
1740460294018072362,-1.467,,,,1.8228617737
1740460294025779829,-1.401,,,,1.8236325204
1740460294033487296,-1.349,,,,1.8244032671
1740460294041194763,-1.268,,,,1.8251740138
1740460294048902230,-1.099,,,,1.8259447605
1740460294056609697,-1.268,,,,1.8267155072
1740460294064317164,-1.464,,,,1.8274862539
1740460294072024631,-1.614,,,,1.8282570006
1740460294079732098,-1.656,,604.0,,1.8290277473
1740460294087439565,-1.386,,,,1.829798494
1740460294095147032,-1.376,,,,1.8305692407
1740460294102854499,-1.447,,,,1.8313399874
1740460294110561966,-1.386,,,,1.8321107341
1740460294118269433,-1.464,,,,1.8328814808
1740460294125976900,-1.425,,,,1.8336522275
1740460294133684367,-1.428,,,,1.8344229742
1740460294141391834,-1.454,,,,1.8351937209
1740460294149099301,-1.364,,,,1.8359644676
1740460294156806768,-1.413,,,,1.8367352143
1740460294164514235,-1.361,,,,1.837505961
1740460294172221702,-1.337,,,,1.8382767077
1740460294179929169,-1.401,,,,1.8390474544
1740460294187636636,-1.3,,,,1.8398182011
1740460294195344103,-1.339,,,,1.8405889478
1740460294203051570,-1.344,,,,1.8413596945
1740460294210759037,-1.275,,,,1.8421304412
1740460294218466504,-1.347,,,,1.8429011879
1740460294226173971,-1.283,,,,1.8436719346
1740460294233881438,-1.315,,,,1.8444426813
1740460294241588905,-1.364,,,,1.845213428
1740460294249296372,-1.29,,,,1.8459841747
1740460294257003839,-1.383,,,,1.8467549214
1740460294264711306,-1.364,,,,1.8475256681
1740460294272418773,-1.359,,,,1.8482964148
1740460294280126240,-1.44,,,,1.8490671615
1740460294287833707,-1.364,,,,1.8498379082
1740460294295541174,-1.428,,,,1.8506086549
1740460294303248641,-1.423,,,,1.8513794016
1740460294310956108,-1.369,,,,1.8521501483
1740460294318663575,-1.454,,,,1.852920895
1740460294326371042,-1.378,,,,1.8536916417
1740460294334078509,-1.398,,,,1.8544623884
1740460294341785976,-1.43,,,,1.8552331351
1740460294349493443,-1.351,,,,1.8560038818
1740460294357200926,-1.437,,,,1.8567746301
1740460294364908393,-1.393,,,,1.8575453768
1740460294372615860,-1.376,,,,1.8583161235
1740460294380323327,-1.437,,,,1.8590868702
1740460294388030794,-1.344,,,,1.8598576169
1740460294395738261,-1.408,,,,1.8606283636
1740460294403445728,-1.388,,,,1.8613991103
1740460294411153195,-1.324,,,,1.862169857
1740460294418860662,-1.415,,,,1.8629406037
1740460294426568129,-1.344,,,,1.8637113504
1740460294434275596,-1.369,,,,1.8644820971
1740460294441983063,-1.396,,,,1.8652528438
1740460294449690530,-1.322,,,,1.8660235905
1740460294457397997,-1.415,,,,1.8667943372
1740460294465105464,-1.361,,,,1.8675650839
1740460294472812931,-1.359,,,,1.8683358306
1740460294480520398,-1.432,,,,1.8691065773
1740460294488227865,-1.334,,,,1.869877324
1740460294495935332,-1.398,,,,1.8706480707
1740460294503642799,-1.391,,,,1.8714188174
1740460294511350266,-1.351,,,,1.8721895641
1740460294519057733,-1.447,,,,1.8729603108
1740460294526765200,-1.378,,,,1.8737310575
1740460294534472667,-1.415,,,,1.8745018042
1740460294542180134,-1.442,,,,1.8752725509
1740460294549887601,-1.366,,,,1.8760432976
1740460294557595068,-1.45,,,,1.8768140443
1740460294565302535,-1.401,,,,1.877584791
1740460294573010002,-1.396,,,,1.8783555377
1740460294580717469,-1.45,,,,1.8791262844
1740460294588424936,-1.361,,,,1.8798970311
1740460294596132403,-1.425,,,,1.8806677778
1740460294603839870,-1.405,,,,1.8814385245
1740460294611547337,-1.366,,,,1.8822092712
1740460294619254804,-1.425,,,,1.8829800179
1740460294626962271,-1.246,,,,1.8837507646
1740460294634669738,-1.15,,,,1.8845215113
1740460294642377205,-1.182,,,,1.885292258
1740460294650084672,-1.324,,,,1.8860630047
1740460294657792139,-1.646,,,,1.8868337514
1740460294665499606,-1.619,,585.0,,1.8876044981
1740460294673207073,-1.415,,,,1.8883752448
1740460294680914540,-1.344,,,,1.8891459915
1740460294688622007,-1.324,,,,1.8899167382
1740460294696329474,-1.425,,,,1.8906874849
1740460294704036941,-1.388,,,,1.8914582316
1740460294711744408,-1.369,,,,1.8922289783
1740460294719451875,-1.45,,,,1.892999725
1740460294727159342,-1.364,,,,1.8937704717
1740460294734866809,-1.386,,,,1.8945412184
1740460294742574276,-1.381,,,,1.8953119651
1740460294750281743,-1.307,,,,1.8960827118
1740460294757989210,-1.371,,,,1.8968534585
1740460294765696677,-1.302,,,,1.8976242052
1740460294773404144,-1.3,,,,1.8983949519
1740460294781111611,-1.344,,,,1.8991656986
1740460294788819078,-1.268,,,,1.8999364453
1740460294796526545,-1.32,,,,1.900707192
1740460294804234012,-1.288,,,,1.9014779387
1740460294811941479,-1.268,,,,1.9022486854
1740460294819648946,-1.349,,,,1.9030194321
1740460294827356413,-1.285,,,,1.9037901788
1740460294835063880,-1.334,,,,1.9045609255
1740460294842771347,-1.354,,,,1.9053316722
1740460294850478814,-1.315,,,,1.9061024189
1740460294858186281,-1.401,,,,1.9068731656
1740460294865893748,-1.364,,,,1.9076439123
1740460294873601215,-1.393,,,,1.908414659
1740460294881308682,-1.437,,,,1.9091854057
1740460294889016149,-1.364,,,,1.9099561524
1740460294896723616,-1.432,,,,1.9107268991
1740460294904431083,-1.398,,,,1.9114976458
1740460294912138550,-1.369,,,,1.9122683925
1740460294919846033,-1.432,100.0,,,1.9130391408
1740460294927553569,-1.359,,,,1.9138098944
1740460294935261105,-1.401,,,,1.914580648
1740460294942968641,-1.408,,,,1.9153514016
1740460294950676177,-1.366,,,,1.9161221552
1740460294958383713,-1.442,,,,1.9168929088
1740460294966091249,-1.383,,,,1.9176636624
1740460294973798785,-1.388,,,,1.918434416
1740460294981506321,-1.418,,,,1.9192051696
1740460294989213857,-1.351,,,,1.9199759232
1740460294996921393,-1.413,,,,1.9207466768
1740460295004628929,-1.369,,,,1.9215174304
1740460295012336465,-1.351,,,,1.922288184
1740460295020044001,-1.42,,,,1.9230589376
1740460295027751537,-1.351,,,,1.9238296912
1740460295035459073,-1.398,,,,1.9246004448
1740460295043166609,-1.401,,,,1.9253711984
1740460295050874145,-1.364,,,,1.926141952
1740460295058581681,-1.437,,,,1.9269127056
1740460295066289217,-1.386,,,,1.9276834592
1740460295073996753,-1.415,,,,1.9284542128
1740460295081704289,-1.454,,,,1.9292249664
1740460295089411825,-1.388,,,,1.92999572
1740460295097119361,-1.452,,,,1.9307664736
1740460295104826897,-1.415,,,,1.9315372272
1740460295112534433,-1.403,,,,1.9323079808
1740460295120241969,-1.454,,,,1.9330787344
1740460295127949505,-1.381,,,,1.933849488
1740460295135657041,-1.442,,,,1.9346202416
1740460295143364577,-1.45,,,,1.9353909952
1740460295151072113,-1.42,,,,1.9361617488
1740460295158779649,-1.504,,,,1.9369325024
1740460295166487185,-1.457,,,,1.937703256
1740460295174194721,-1.496,,,,1.9384740096
1740460295181902257,-1.531,,,,1.9392447632
1740460295189609793,-1.462,,,,1.9400155168
1740460295197317329,-1.518,,,,1.9407862704
1740460295205024865,-1.481,,,,1.941557024
1740460295212732401,-1.477,,,,1.9423277776
1740460295220439937,-1.526,,,,1.9430985312
1740460295228147473,-1.462,,,,1.9438692848
1740460295235855009,-1.511,,,,1.9446400384
1740460295243562545,-1.452,,582.0,,1.945410792
1740460295251270081,-1.3,,,,1.9461815456
1740460295258977617,-1.295,,,,1.9469522992
1740460295266685153,-1.349,,,,1.9477230528
1740460295274392689,-1.614,,,,1.9484938064
1740460295282100225,-1.793,,,,1.94926456
1740460295289807761,-1.648,,,,1.9500353136
1740460295297515297,-1.513,,,,1.9508060672
1740460295305222833,-1.442,,,,1.9515768208
1740460295312930369,-1.526,,,,1.9523475744
1740460295320637905,-1.58,,,,1.953118328
1740460295328345441,-1.501,,,,1.9538890816
1740460295336052977,-1.577,,,,1.9546598352
1740460295343760513,-1.56,,,,1.9554305888
1740460295351468049,-1.516,,,,1.9562013424
1740460295359175585,-1.567,,,,1.956972096
1740460295366883121,-1.484,,,,1.9577428496
1740460295374590657,-1.508,,,,1.9585136032
1740460295382298193,-1.526,,,,1.9592843568
1740460295390005729,-1.459,,,,1.9600551104
1740460295397713265,-1.501,,,,1.960825864
1740460295405420801,-1.442,,,,1.9615966176
1740460295413128337,-1.442,,,,1.9623673712
1740460295420835873,-1.474,,,,1.9631381248
1740460295428543409,-1.401,,,,1.9639088784
1740460295436250945,-1.464,,,,1.964679632
1740460295443958481,-1.454,,,,1.9654503856
1740460295451666017,-1.437,,,,1.9662211392
1740460295459373553,-1.501,,,,1.9669918928
1740460295467081089,-1.445,,,,1.9677626464
1740460295474788625,-1.501,,,,1.9685334
1740460295482496226,-1.523,,,,1.9693041601
1740460295490203762,-1.479,,,,1.9700749137
1740460295497911298,-1.553,,,,1.9708456673
1740460295505618834,-1.504,,,,1.9716164209
1740460295513326370,-1.513,,,,1.9723871745
1740460295521033906,-1.545,,,,1.9731579281
1740460295528741442,-1.472,,,,1.9739286817
1740460295536448978,-1.535,,,,1.9746994353
1740460295544156514,-1.506,,,,1.9754701889
1740460295551864050,-1.481,,,,1.9762409425
1740460295559571586,-1.543,,,,1.9770116961
1740460295567279122,-1.477,,,,1.9777824497
1740460295574986658,-1.508,,,,1.9785532033
1740460295582694194,-1.499,,,,1.9793239569
1740460295590401730,-1.44,,,,1.9800947105
1740460295598109266,-1.486,,,,1.9808654641
1740460295605816802,-1.408,,,,1.9816362177
1740460295613524338,-1.408,,,,1.9824069713
1740460295621231874,-1.423,,,,1.9831777249
1740460295628939410,-1.347,,,,1.9839484785
1740460295636646946,-1.41,,,,1.9847192321
1740460295644354482,-1.361,,,,1.9854899857
1740460295652062018,-1.344,,,,1.9862607393
1740460295659769554,-1.403,,,,1.9870314929
1740460295667477090,-1.322,,,,1.9878022465
1740460295675184626,-1.376,,,,1.9885730001
1740460295682892162,-1.376,,,,1.9893437537
1740460295690599698,-1.322,,,,1.9901145073
1740460295698307234,-1.396,,,,1.9908852609
1740460295706014770,-1.329,,,,1.9916560145
1740460295713722306,-1.347,,,,1.9924267681
1740460295721429842,-1.378,,,,1.9931975217
1740460295729137378,-1.312,,,,1.9939682753
1740460295736844914,-1.396,,,,1.9947390289
1740460295744552450,-1.364,,,,1.9955097825
1740460295752259986,-1.351,,,,1.9962805361
1740460295759967522,-1.408,,,,1.9970512897
1740460295767675058,-1.332,,,,1.9978220433
1740460295775382594,-1.398,,,,1.9985927969
1740460295783090130,-1.391,,,,1.9993635505
1740460295790797666,-1.344,,,,2.0001343041
1740460295798505202,-1.42,,,,2.0009050577
1740460295806212738,-1.351,,,,2.0016758113
1740460295813920274,-1.381,,,,2.0024465649
1740460295821627810,-1.408,,,,2.0032173185
1740460295829335346,-1.334,,589.0,,2.0039880721
1740460295837042882,-1.388,,,,2.0047588257
1740460295844750418,-1.241,,,,2.0055295793
1740460295852457954,-1.113,,,,2.0063003329
1740460295860165490,-1.202,,,,2.0070710865
1740460295867873026,-1.322,,,,2.0078418401
1740460295875580562,-1.602,,,,2.0086125937
1740460295883288098,-1.604,,,,2.0093833473
1740460295890995634,-1.361,,,,2.0101541009
1740460295898703170,-1.312,,,,2.0109248545
1740460295906410706,-1.295,,,,2.0116956081
1740460295914118242,-1.369,,,,2.0124663617
1740460295921825778,-1.376,,,,2.0132371153
1740460295929533314,-1.317,,,,2.0140078689
1740460295937240850,-1.403,,,,2.0147786225
1740460295944948386,-1.339,,,,2.0155493761
1740460295952655922,-1.334,,,,2.0163201297
1740460295960363458,-1.378,,,,2.0170908833
1740460295968070994,-1.275,,,,2.0178616369
1740460295975778530,-1.332,,,,2.0186323905
1740460295983486066,-1.31,,,,2.0194031441
1740460295991193602,-1.261,,,,2.0201738977
1740460295998901138,-1.329,,,,2.0209446513
1740460296006608674,-1.251,,,,2.0217154049
1740460296014316210,-1.285,,,,2.0224861585
1740460296022023746,-1.295,,,,2.0232569121
1740460296029731282,-1.229,,,,2.0240276657
1740460296037438818,-1.324,,,,2.0247984193
1740460296045146419,-1.283,101.0,,,2.0255691794
1740460296052854164,-1.293,,,,2.0263399539
1740460296060561909,-1.347,,,,2.0271107284
1740460296068269654,-1.278,,,,2.0278815029
1740460296075977399,-1.366,,,,2.0286522774
1740460296083685144,-1.356,,,,2.0294230519
1740460296091392889,-1.337,,,,2.0301938264
1740460296099100634,-1.425,,,,2.0309646009
1740460296106808379,-1.342,,,,2.0317353754
1740460296114516124,-1.381,,,,2.0325061499
1740460296122223869,-1.396,,,,2.0332769244
1740460296129931614,-1.332,,,,2.0340476989
1740460296137639359,-1.423,,,,2.0348184734
1740460296145347104,-1.364,,,,2.0355892479
1740460296153054849,-1.376,,,,2.0363600224
1740460296160762594,-1.43,,,,2.0371307969
1740460296168470339,-1.351,,,,2.0379015714
1740460296176178084,-1.43,,,,2.0386723459
1740460296183885829,-1.401,,,,2.0394431204
1740460296191593574,-1.361,,,,2.0402138949
1740460296199301319,-1.428,,,,2.0409846694
1740460296207009064,-1.337,,,,2.0417554439
1740460296214716809,-1.381,,,,2.0425262184
1740460296222424554,-1.388,,,,2.0432969929
1740460296230132299,-1.329,,,,2.0440677674
1740460296237840044,-1.42,,,,2.0448385419
1740460296245547789,-1.359,,,,2.0456093164
1740460296253255534,-1.378,,,,2.0463800909
1740460296260963279,-1.432,,,,2.0471508654
1740460296268671024,-1.351,,,,2.0479216399
1740460296276378769,-1.428,,,,2.0486924144
1740460296284086514,-1.408,,,,2.0494631889
1740460296291794259,-1.381,,,,2.0502339634
1740460296299502004,-1.45,,,,2.0510047379
1740460296307209749,-1.376,,,,2.0517755124
1740460296314917494,-1.423,,,,2.0525462869
1740460296322625239,-1.423,,,,2.0533170614
1740460296330332984,-1.376,,,,2.0540878359
1740460296338040729,-1.457,,,,2.0548586104
1740460296345748474,-1.376,,,,2.0556293849
1740460296353456219,-1.371,,,,2.0564001594
1740460296361163964,-1.396,,,,2.0571709339
1740460296368871709,-1.327,,,,2.0579417084
1740460296376579454,-1.413,,,,2.0587124829
1740460296384287199,-1.376,,,,2.0594832574
1740460296391994944,-1.356,,,,2.0602540319
1740460296399702689,-1.432,,,,2.0610248064
1740460296407410434,-1.349,,,,2.0617955809
1740460296415118179,-1.403,,,,2.0625663554
1740460296422825924,-1.403,,588.0,,2.0633371299
1740460296430533669,-1.349,,,,2.0641079044
1740460296438241414,-1.428,,,,2.0648786789
1740460296445949159,-1.359,,,,2.0656494534
1740460296453656904,-1.378,,,,2.0664202279
1740460296461364649,-1.41,,,,2.0671910024
1740460296469072394,-1.332,,,,2.0679617769
1740460296476780139,-1.364,,,,2.0687325514
1740460296484487884,-1.202,,,,2.0695033259
1740460296492195629,-1.111,,,,2.0702741004
1740460296499903374,-1.266,,,,2.0710448749
1740460296507611119,-1.398,,,,2.0718156494
1740460296515318864,-1.643,,,,2.0725864239
1740460296523026609,-1.599,,,,2.0733571984
1740460296530734354,-1.349,,,,2.0741279729
1740460296538442099,-1.371,,,,2.0748987474
1740460296546149844,-1.364,,,,2.0756695219
1740460296553857589,-1.383,,,,2.0764402964
1740460296561565334,-1.393,,,,2.0772110709
1740460296569273079,-1.334,,,,2.0779818454
1740460296576980824,-1.41,,,,2.0787526199
1740460296584688569,-1.347,,,,2.0795233944
1740460296592396314,-1.32,,,,2.0802941689
1740460296600104059,-1.369,,,,2.0810649434
1740460296607811872,-1.28,,,,2.0818357247
1740460296615519339,-1.327,,,,2.0826064714
1740460296623226806,-1.31,,,,2.0833772181
1740460296630934273,-1.263,,,,2.0841479648
1740460296638641740,-1.337,,,,2.0849187115
1740460296646349207,-1.261,,,,2.0856894582
1740460296654056674,-1.285,,,,2.0864602049
1740460296661764141,-1.312,,,,2.0872309516
1740460296669471608,-1.251,,,,2.0880016983
1740460296677179075,-1.334,,,,2.088772445
1740460296684886542,-1.288,,,,2.0895431917
1740460296692594009,-1.285,,,,2.0903139384
1740460296700301476,-1.354,,,,2.0910846851
1740460296708008943,-1.28,,,,2.0918554318
1740460296715716410,-1.349,,,,2.0926261785
1740460296723423877,-1.347,,,,2.0933969252
1740460296731131344,-1.312,,,,2.0941676719
1740460296738838811,-1.386,,,,2.0949384186
1740460296746546278,-1.312,,,,2.0957091653
1740460296754253745,-1.349,,,,2.096479912
1740460296761961212,-1.364,,,,2.0972506587
1740460296769668679,-1.285,,,,2.0980214054
1740460296777376146,-1.366,,,,2.0987921521
1740460296785083613,-1.317,,,,2.0995628988
1740460296792791080,-1.32,,,,2.1003336455
1740460296800498547,-1.371,,,,2.1011043922
1740460296808206014,-1.283,,,,2.1018751389
1740460296815913481,-1.354,,,,2.1026458856
1740460296823620948,-1.322,,,,2.1034166323
1740460296831328415,-1.285,,,,2.104187379
1740460296839035882,-1.366,,,,2.1049581257
1740460296846743349,-1.278,,,,2.1057288724
1740460296854450816,-1.31,,,,2.1064996191
1740460296862158283,-1.324,,,,2.1072703658
1740460296869865750,-1.256,,,,2.1080411125
1740460296877573217,-1.342,,,,2.1088118592
1740460296885280684,-1.275,,,,2.1095826059
1740460296892988151,-1.29,,,,2.1103533526
1740460296900695618,-1.342,,,,2.1111240993
1740460296908403085,-1.253,,,,2.111894846
1740460296916110552,-1.334,,,,2.1126655927
1740460296923818019,-1.307,,,,2.1134363394
1740460296931525486,-1.283,,,,2.1142070861
1740460296939232953,-1.356,,,,2.1149778328
1740460296946940420,-1.258,,,,2.1157485795
1740460296954647887,-1.315,,,,2.1165193262
1740460296962355354,-1.315,,,,2.1172900729
1740460296970062821,-1.239,,,,2.1180608196
1740460296977770288,-1.327,,,,2.1188315663
1740460296985477755,-1.246,,,,2.119602313
1740460296993185222,-1.278,,576.0,,2.1203730597
1740460297000892689,-1.342,,,,2.1211438064
1740460297008600156,-1.246,,,,2.1219145531
1740460297016307623,-1.337,,,,2.1226852998
1740460297024015090,-1.297,,,,2.1234560465
1740460297031722557,-1.275,,,,2.1242267932
1740460297039430024,-1.354,,,,2.1249975399
1740460297047137491,-1.248,,,,2.1257682866
1740460297054844958,-1.32,,,,2.1265390333
1740460297062552425,-1.324,,,,2.12730978
1740460297070259892,-1.256,,,,2.1280805267
1740460297077967359,-1.354,,,,2.1288512734
1740460297085674826,-1.261,,,,2.1296220201
1740460297093382293,-1.266,,,,2.1303927668
1740460297101089760,-1.224,,,,2.1311635135
1740460297108797227,-1.013,,,,2.1319342602
