time,ecg,hr,rr,marker,norm_time
1748247353191430924,-0.184,84.0,790.0,,0.0
1748247353199130935,-0.182,,,,0.0007700011
1748247353206830946,-0.182,,,,0.0015400022
1748247353214530957,-0.182,,,,0.0023100033
1748247353222230968,-0.182,,,,0.0030800044
1748247353229930979,-0.179,,,,0.0038500055
1748247353237630990,-0.179,,,,0.0046200066
1748247353245331001,-0.177,,,,0.0053900077
1748247353253031012,-0.177,,,,0.0061600088
1748247353260731023,-0.172,,,,0.0069300099
1748247353268431034,-0.167,,,,0.007700011
1748247353276131045,-0.167,,,,0.0084700121
1748247353283831056,-0.167,,,,0.0092400132
1748247353291531067,-0.162,,,,0.0100100143
1748247353299231078,-0.148,,,,0.0107800154
1748247353306931089,-0.119,,,,0.0115500165
1748247353314631100,-0.097,,,,0.0123200176
1748247353322331111,-0.106,,,,0.0130900187
1748247353330031122,-0.143,,,,0.0138600198
1748247353337731133,-0.184,,,,0.0146300209
1748247353345431144,-0.196,,,,0.015400022
1748247353353131155,-0.189,,,,0.0161700231
1748247353360831166,-0.184,,,,0.0169400242
1748247353368531177,-0.182,,,,0.0177100253
1748247353376231188,-0.177,,,,0.0184800264
1748247353383931199,-0.172,,,,0.0192500275
1748247353391631210,-0.17,,,,0.0200200286
1748247353399331221,-0.194,,,,0.0207900297
1748247353407031232,-0.24,,,,0.0215600308
1748247353414731243,-0.029,,,,0.0223300319
1748247353422431254,0.634,,,,0.023100033
1748247353430131265,1.234,,,,0.0238700341
1748247353437831276,1.204,,,,0.0246400352
1748247353445531287,0.412,,,,0.0254100363
1748247353453231298,-0.541,,,,0.0261800374
1748247353460931309,-0.5630000000000001,,,,0.0269500385
1748247353468631320,-0.099,,,,0.0277200396
1748247353476331331,-0.199,,,,0.0284900407
1748247353484031342,-0.371,,,,0.0292600418
1748247353491731353,-0.23,,,,0.0300300429
1748247353499431364,-0.199,,,,0.030800044
1748247353507131375,-0.259,,,,0.0315700451
1748247353514831386,-0.216,,,,0.0323400462
1748247353522531397,-0.179,,,,0.0331100473
1748247353530231408,-0.196,,,,0.0338800484
1748247353537931419,-0.182,,,,0.0346500495
1748247353545631430,-0.155,,,,0.0354200506
1748247353553331441,-0.153,,,,0.0361900517
1748247353561031452,-0.14,,,,0.0369600528
1748247353568731463,-0.119,,,,0.0377300539
1748247353576431474,-0.106,,,,0.038500055
1748247353584131485,-0.094,,,,0.0392700561
1748247353591831496,-0.072,,,,0.0400400572
1748247353599531507,-0.051,,,,0.0408100583
1748247353607231518,-0.031,,,,0.0415800594
1748247353614931529,-0.007,,,,0.0423500605
1748247353622631540,0.014,,,,0.0431200616
1748247353630331551,0.024,,,,0.0438900627
1748247353638031562,0.034,,,,0.0446600638
1748247353645731573,0.043,,,,0.0454300649
1748247353653431584,0.038,,,,0.046200066
1748247353661131595,0.012,,,,0.0469700671
1748247353668831606,-0.043,,,,0.0477400682
1748247353676531617,-0.126,,,,0.0485100693
1748247353684231628,-0.201,,,,0.0492800704
1748247353691931639,-0.255,,,,0.0500500715
1748247353699631650,-0.289,,,,0.0508200726
1748247353707331661,-0.306,,,,0.0515900737
1748247353715031672,-0.313,,,,0.0523600748
1748247353722731683,-0.308,,,,0.0531300759
1748247353730431694,-0.303,,,,0.053900077
1748247353738131705,-0.296,,,,0.0546700781
1748247353745831716,-0.289,,,,0.0554400792
1748247353753531794,-0.279,83.0,744.0,,0.056210087
1748247353761231945,-0.267,,,,0.0569801021
1748247353768932096,-0.262,,,,0.0577501172
1748247353776632247,-0.257,,,,0.0585201323
1748247353784332398,-0.242,,,,0.0592901474
1748247353792032549,-0.235,,,,0.0600601625
1748247353799732700,-0.225,,,,0.0608301776
1748247353807432851,-0.213,,,,0.0616001927
1748247353815133002,-0.206,,,,0.0623702078
1748247353822833153,-0.199,,,,0.0631402229
1748247353830533304,-0.194,,,,0.063910238
1748247353838233455,-0.191,,,,0.0646802531
1748247353845933606,-0.189,,,,0.0654502682
1748247353853633757,-0.187,,,,0.0662202833
1748247353861333908,-0.187,,,,0.0669902984
1748247353869034059,-0.184,,,,0.0677603135
1748247353876734210,-0.184,,,,0.0685303286
1748247353884434361,-0.184,,,,0.0693003437
1748247353892134512,-0.184,,,,0.0700703588
1748247353899834663,-0.182,,,,0.0708403739
1748247353907534814,-0.182,,,,0.071610389
1748247353915234965,-0.184,,,,0.0723804041
1748247353922935116,-0.184,,,,0.0731504192
1748247353930635267,-0.184,,,,0.0739204343
1748247353938335418,-0.179,,,,0.0746904494
1748247353946035569,-0.179,,,,0.0754604645
1748247353953735720,-0.179,,,,0.0762304796
1748247353961435871,-0.177,,,,0.0770004947
1748247353969136022,-0.177,,,,0.0777705098
1748247353976836173,-0.177,,,,0.0785405249
1748247353984536324,-0.174,,,,0.07931054
1748247353992236475,-0.172,,,,0.0800805551
1748247353999936626,-0.177,,,,0.0808505702
1748247354007636777,-0.174,,,,0.0816205853
1748247354015336928,-0.167,,,,0.0823906004
1748247354023037079,-0.167,,,,0.0831606155
1748247354030737230,-0.165,,,,0.0839306306
1748247354038437381,-0.16,,,,0.0847006457
1748247354046137532,-0.16,,,,0.0854706608
1748247354053837683,-0.165,,,,0.0862406759
1748247354061537834,-0.153,,,,0.087010691
1748247354069237985,-0.121,,,,0.0877807061
1748247354076938136,-0.089,,,,0.0885507212
1748247354084638287,-0.102,,,,0.0893207363
1748247354092338438,-0.128,,,,0.0900907514
1748247354100038589,-0.155,,,,0.0908607665
1748247354107738740,-0.184,,,,0.0916307816
1748247354115438891,-0.194,,,,0.0924007967
1748247354123139042,-0.184,,,,0.0931708118
1748247354130839193,-0.177,,,,0.0939408269
1748247354138539344,-0.174,,,,0.094710842
1748247354146239495,-0.17,,,,0.0954808571
1748247354153939646,-0.165,,,,0.0962508722
1748247354161639797,-0.172,,,,0.0970208873
1748247354169339948,-0.228,,,,0.0977909024
1748247354177040099,-0.196,,,,0.0985609175
1748247354184740250,0.279,,,,0.0993309326
1748247354192440401,1.032,,,,0.1001009477
1748247354200140552,1.387,,,,0.1008709628
1748247354207840703,0.971,,,,0.1016409779
1748247354215540854,-0.072,,,,0.102410993
1748247354223241005,-0.6920000000000001,,,,0.1031810081
1748247354230941156,-0.303,,,,0.1039510232
1748247354238641307,-0.072,,,,0.1047210383
1748247354246341458,-0.337,,,,0.1054910534
1748247354254041609,-0.323,,,,0.1062610685
1748247354261741760,-0.182,,,,0.1070310836
1748247354269441911,-0.238,,,,0.1078010987
1748247354277142062,-0.257,,,,0.1085711138
1748247354284842213,-0.194,,,,0.1093411289
1748247354292542364,-0.189,,,,0.110111144
1748247354300242515,-0.194,,,,0.1108811591
1748247354307942666,-0.167,,,,0.1116511742
1748247354315642834,-0.15,,,,0.112421191
1748247354323343124,-0.143,,,,0.11319122
1748247354331043414,-0.131,,,,0.113961249
1748247354338743704,-0.114,,,,0.114731278
1748247354346443994,-0.097,,,,0.115501307
1748247354354144284,-0.082,,,,0.116271336
1748247354361844574,-0.063,,,,0.117041365
1748247354369544864,-0.043,,,,0.117811394
1748247354377245154,-0.021,,,,0.118581423
1748247354384945444,0.0,,,,0.119351452
1748247354392645734,0.014,,,,0.120121481
1748247354400346024,0.026,,,,0.12089151
1748247354408046314,0.036,,,,0.121661539
1748247354415746604,0.036,,,,0.122431568
1748247354423446894,0.026,,,,0.123201597
1748247354431147184,-0.009,,,,0.123971626
1748247354438847474,-0.08,,,,0.124741655
1748247354446547764,-0.157,,,,0.125511684
1748247354454248054,-0.223,,,,0.126281713
1748247354461948344,-0.272,,,,0.127051742
1748247354469648634,-0.303,,,,0.127821771
1748247354477348924,-0.313,,,,0.1285918
1748247354485049214,-0.31,,,,0.129361829
1748247354492749504,-0.308,,,,0.130131858
1748247354500449794,-0.306,,,,0.130901887
1748247354508150084,-0.298,,,,0.131671916
1748247354515850374,-0.289,,,,0.132441945
1748247354523550664,-0.281,,,,0.133211974
1748247354531250954,-0.276,,,,0.133982003
1748247354538951244,-0.267,,,,0.134752032
1748247354546651534,-0.257,,,,0.135522061
1748247354554351824,-0.25,,,,0.13629209
1748247354562052114,-0.238,,,,0.137062119
1748247354569752404,-0.233,,,,0.137832148
1748247354577452694,-0.23,,,,0.138602177
1748247354585152984,-0.218,,,,0.139372206
1748247354592853274,-0.213,,,,0.140142235
1748247354600553564,-0.216,,,,0.140912264
1748247354608253854,-0.211,,,,0.141682293
1748247354615954144,-0.201,,,,0.142452322
1748247354623654434,-0.196,,,,0.143222351
1748247354631354724,-0.201,,,,0.14399238
1748247354639055014,-0.206,,,,0.144762409
1748247354646755304,-0.204,,,,0.145532438
1748247354654455594,-0.201,,,,0.146302467
1748247354662155884,-0.201,,,,0.147072496
1748247354669856174,-0.204,,,,0.147842525
1748247354677556464,-0.206,,,,0.148612554
1748247354685256754,-0.204,,,,0.149382583
1748247354692957044,-0.199,,,,0.150152612
1748247354700657334,-0.199,,,,0.150922641
1748247354708357624,-0.204,,,,0.15169267
1748247354716057914,-0.201,,,,0.152462699
1748247354723758204,-0.194,,,,0.153232728
1748247354731458494,-0.191,,,,0.154002757
1748247354739158784,-0.191,,,,0.154772786
1748247354746859074,-0.194,,,,0.155542815
1748247354754559364,-0.196,,,,0.156312844
1748247354762259654,-0.194,,,,0.157082873
1748247354769959944,-0.184,,,,0.157852902
1748247354777660234,-0.184,,,,0.158622931
1748247354785360524,-0.187,,,,0.15939296
1748247354793060814,-0.189,,,,0.160162989
1748247354800761104,-0.184,,,,0.160933018
1748247354808461394,-0.177,,,,0.161703047
1748247354816161684,-0.17,,,,0.162473076
1748247354823861974,-0.155,,,,0.163243105
1748247354831562264,-0.126,,,,0.164013134
1748247354839262554,-0.114,,,,0.164783163
1748247354846962844,-0.128,,,,0.165553192
1748247354854663134,-0.157,,,,0.166323221
1748247354862363424,-0.194,,,,0.16709325
1748247354870063714,-0.223,,,,0.167863279
1748247354877764048,-0.218,83.0,729.0,,0.1686333124
1748247354885463990,-0.199,,731.0,,0.1694033066
1748247354893163932,-0.194,,,,0.1701733008
1748247354900863874,-0.196,,,,0.170943295
1748247354908563816,-0.182,,,,0.1717132892
1748247354916263758,-0.167,,,,0.1724832834
1748247354923963700,-0.208,,,,0.1732532776
1748247354931663642,-0.25,,,,0.1740232718
1748247354939363584,0.046,,,,0.174793266
1748247354947063526,0.779,,,,0.1755632602
1748247354954763468,1.338,,,,0.1763332544
1748247354962463410,1.187,,,,0.1771032486
1748247354970163352,0.293,,,,0.1778732428
1748247354977863294,-0.629,,,,0.178643237
1748247354985563236,-0.556,,,,0.1794132312
1748247354993263178,-0.111,,,,0.1801832254
1748247355000963120,-0.242,,,,0.1809532196
1748247355008663062,-0.376,,,,0.1817232138
1748247355016363004,-0.225,,,,0.182493208
1748247355024062946,-0.213,,,,0.1832632022
1748247355031762888,-0.274,,,,0.1840331964
1748247355039462830,-0.221,,,,0.1848031906
1748247355047162772,-0.187,,,,0.1855731848
1748247355054862714,-0.206,,,,0.186343179
1748247355062562656,-0.182,,,,0.1871131732
1748247355070262598,-0.155,,,,0.1878831674
1748247355077962540,-0.157,,,,0.1886531616
1748247355085662482,-0.14,,,,0.1894231558
1748247355093362424,-0.111,,,,0.19019315
1748247355101062366,-0.102,,,,0.1909631442
1748247355108762308,-0.087,,,,0.1917331384
1748247355116462250,-0.058,,,,0.1925031326
1748247355124162192,-0.041,,,,0.1932731268
1748247355131862134,-0.034,,,,0.194043121
1748247355139562076,-0.007,,,,0.1948131152
1748247355147262018,0.021,,,,0.1955831094
1748247355154961960,0.031,,,,0.1963531036
1748247355162661902,0.043,,,,0.1971230978
1748247355170361844,0.06,,,,0.197893092
1748247355178061786,0.053,,,,0.1986630862
1748247355185761728,0.017,,,,0.1994330804
1748247355193461670,-0.048,,,,0.2002030746
1748247355201161612,-0.138,,,,0.2009730688
1748247355208861554,-0.213,,,,0.201743063
1748247355216561496,-0.264,,,,0.2025130572
1748247355224261438,-0.293,,,,0.2032830514
1748247355231961380,-0.313,,,,0.2040530456
1748247355239661322,-0.33,,,,0.2048230398
1748247355247361264,-0.325,,,,0.205593034
1748247355255061206,-0.31,,,,0.2063630282
1748247355262761148,-0.313,,,,0.2071330224
1748247355270461090,-0.31,,,,0.2079030166
1748247355278161032,-0.289,,,,0.2086730108
1748247355285860974,-0.284,,,,0.209443005
1748247355293560916,-0.291,,,,0.2102129992
1748247355301260858,-0.276,,,,0.2109829934
1748247355308960800,-0.252,,,,0.2117529876
1748247355316660742,-0.247,,,,0.2125229818
1748247355324360684,-0.247,,,,0.213292976
1748247355332060626,-0.242,,,,0.2140629702
1748247355339760568,-0.228,,,,0.2148329644
1748247355347460510,-0.213,,,,0.2156029586
1748247355355160452,-0.213,,,,0.2163729528
1748247355362860394,-0.211,,,,0.217142947
1748247355370560336,-0.199,,,,0.2179129412
1748247355378260278,-0.191,,,,0.2186829354
1748247355385960220,-0.194,,,,0.2194529296
1748247355393660162,-0.196,,,,0.2202229238
1748247355401360104,-0.194,,,,0.220992918
1748247355409060046,-0.196,,,,0.2217629122
1748247355416759988,-0.196,,,,0.2225329064
1748247355424459930,-0.194,,,,0.2233029006
1748247355432159872,-0.194,,,,0.2240728948
1748247355439859835,-0.196,,,,0.2248428911
1748247355447560334,-0.199,,,,0.225612941
1748247355455260833,-0.196,,,,0.2263829909
1748247355462961332,-0.191,,,,0.2271530408
1748247355470661831,-0.189,,,,0.2279230907
1748247355478362330,-0.191,,,,0.2286931406
1748247355486062829,-0.196,,,,0.2294631905
1748247355493763328,-0.191,,,,0.2302332404
1748247355501463827,-0.182,,,,0.2310032903
1748247355509164326,-0.179,,,,0.2317733402
1748247355516864825,-0.179,,,,0.2325433901
1748247355524565324,-0.172,,,,0.23331344
1748247355532265823,-0.155,,,,0.2340834899
1748247355539966322,-0.136,,,,0.2348535398
1748247355547666821,-0.116,,,,0.2356235897
1748247355555367320,-0.114,,,,0.2363936396
1748247355563067819,-0.131,,,,0.2371636895
1748247355570768318,-0.167,,,,0.2379337394
1748247355578468817,-0.204,,,,0.2387037893
1748247355586169316,-0.208,,,,0.2394738392
1748247355593869815,-0.201,,,,0.2402438891
1748247355601570314,-0.199,,,,0.241013939
1748247355609270813,-0.191,,,,0.2417839889
1748247355616971312,-0.184,,,,0.2425540388
1748247355624671811,-0.182,,,,0.2433240887
1748247355632372310,-0.179,,,,0.2440941386
1748247355640072809,-0.194,,,,0.2448641885
1748247355647773308,-0.211,,,,0.2456342384
1748247355655473807,0.068,,,,0.2464042883
1748247355663174306,0.757,,,,0.2471743382
1748247355670874805,1.272,,,,0.2479443881
1748247355678575304,1.071,,,,0.248714438
1748247355686275803,0.155,,,,0.2494844879
1748247355693976302,-0.7020000000000001,,,,0.2502545378
1748247355701676801,-0.548,,,,0.2510245877
1748247355709377300,-0.085,,,,0.2517946376
1748247355717077799,-0.223,,,,0.2525646875
1748247355724778298,-0.354,,,,0.2533347374
1748247355732478797,-0.206,,,,0.2541047873
1748247355740179296,-0.191,,,,0.2548748372
1748247355747879795,-0.247,,,,0.2556448871
1748247355755580294,-0.199,,,,0.256414937
1748247355763280793,-0.17,,,,0.2571849869
1748247355770981292,-0.184,,,,0.2579550368
1748247355778681791,-0.165,,,,0.2587250867
1748247355786382290,-0.14,,,,0.2594951366
1748247355794082789,-0.138,,,,0.2602651865
1748247355801783288,-0.121,,,,0.2610352364
1748247355809483787,-0.102,,,,0.2618052863
1748247355817184286,-0.089,,,,0.2625753362
1748247355824884785,-0.072,,,,0.2633453861
1748247355832585284,-0.053,,,,0.264115436
1748247355840285783,-0.034,,,,0.2648854859
1748247355847986282,-0.009,,,,0.2656555358
1748247355855686781,0.014,,,,0.2664255857
1748247355863387280,0.034,,,,0.2671956356
1748247355871087779,0.051,,,,0.2679656855
1748247355878788278,0.065,,,,0.2687357354
1748247355886488777,0.075,,,,0.2695057853
1748247355894189276,0.065,,,,0.2702758352
1748247355901889775,0.031,,,,0.2710458851
1748247355909590274,-0.036,,,,0.271815935
1748247355917290773,-0.128,,,,0.2725859849
1748247355924991272,-0.208,,,,0.2733560348
1748247355932691771,-0.264,,,,0.2741260847
1748247355940392270,-0.298,,,,0.2748961346
1748247355948092769,-0.318,,,,0.2756661845
1748247355955793268,-0.323,,,,0.2764362344
1748247355963493767,-0.32,,,,0.2772062843
1748247355971194266,-0.313,,,,0.2779763342
1748247355978894765,-0.303,,,,0.2787463841
1748247355986595264,-0.296,,,,0.279516434
1748247355994295763,-0.289,,,,0.2802864839
1748247356001996308,-0.276,83.0,767.0,,0.2810565384
1748247356009696319,-0.267,,,,0.2818265395
1748247356017396330,-0.264,,,,0.2825965406
1748247356025096341,-0.255,,,,0.2833665417
1748247356032796352,-0.242,,,,0.2841365428
1748247356040496363,-0.233,,,,0.2849065439
1748247356048196374,-0.223,,,,0.285676545
1748247356055896385,-0.216,,,,0.2864465461
1748247356063596396,-0.206,,,,0.2872165472
1748247356071296407,-0.201,,,,0.2879865483
1748247356078996418,-0.199,,,,0.2887565494
1748247356086696429,-0.194,,,,0.2895265505
1748247356094396440,-0.191,,,,0.2902965516
1748247356102096451,-0.187,,,,0.2910665527
1748247356109796462,-0.182,,,,0.2918365538
1748247356117496473,-0.182,,,,0.2926065549
1748247356125196484,-0.187,,,,0.293376556
1748247356132896495,-0.184,,,,0.2941465571
1748247356140596506,-0.179,,,,0.2949165582
1748247356148296517,-0.182,,,,0.2956865593
1748247356155996528,-0.187,,,,0.2964565604
1748247356163696539,-0.182,,,,0.2972265615
1748247356171396550,-0.184,,,,0.2979965626
1748247356179096561,-0.184,,,,0.2987665637
1748247356186796572,-0.179,,,,0.2995365648
1748247356194496583,-0.179,,,,0.3003065659
1748247356202196594,-0.177,,,,0.301076567
1748247356209896605,-0.177,,,,0.3018465681
1748247356217596616,-0.179,,,,0.3026165692
1748247356225296627,-0.174,,,,0.3033865703
1748247356232996638,-0.17,,,,0.3041565714
1748247356240696649,-0.167,,,,0.3049265725
1748247356248396660,-0.162,,,,0.3056965736
1748247356256096671,-0.162,,,,0.3064665747
1748247356263796682,-0.165,,,,0.3072365758
1748247356271496693,-0.157,,,,0.3080065769
1748247356279196704,-0.14,,,,0.308776578
1748247356286896715,-0.111,,,,0.3095465791
1748247356294596726,-0.092,,,,0.3103165802
1748247356302296737,-0.106,,,,0.3110865813
1748247356309996748,-0.138,,,,0.3118565824
1748247356317696759,-0.172,,,,0.3126265835
1748247356325396770,-0.189,,,,0.3133965846
1748247356333096781,-0.187,,,,0.3141665857
1748247356340796792,-0.177,,,,0.3149365868
1748247356348496803,-0.174,,,,0.3157065879
1748247356356196814,-0.17,,,,0.316476589
1748247356363896825,-0.162,,,,0.3172465901
1748247356371596836,-0.157,,,,0.3180165912
1748247356379296847,-0.184,,,,0.3187865923
1748247356386996858,-0.238,,,,0.3195565934
1748247356394696869,-0.065,,,,0.3203265945
1748247356402396880,0.561,,,,0.3210965956
1748247356410096891,1.212,,,,0.3218665967
1748247356417796902,1.285,,,,0.3226365978
1748247356425496913,0.58,,,,0.3234065989
1748247356433196924,-0.427,,,,0.3241766
1748247356440896935,-0.604,,,,0.3249466011
1748247356448596946,-0.131,,,,0.3257166022
1748247356456296957,-0.157,,,,0.3264866033
1748247356463996968,-0.369,,,,0.3272566044
1748247356471696979,-0.245,,,,0.3280266055
1748247356479396990,-0.182,,,,0.3287966066
1748247356487097001,-0.252,,,,0.3295666077
1748247356494797012,-0.223,,,,0.3303366088
1748247356502497023,-0.177,,,,0.3311066099
1748247356510197034,-0.189,,,,0.331876611
1748247356517897045,-0.179,,,,0.3326466121
1748247356525597056,-0.148,,,,0.3334166132
1748247356533297067,-0.14,,,,0.3341866143
1748247356540997078,-0.136,,,,0.3349566154
1748247356548697089,-0.114,,,,0.3357266165
1748247356556397100,-0.097,,,,0.3364966176
1748247356564097176,-0.085,,,,0.3372666252
1748247356571797466,-0.063,,,,0.3380366542
1748247356579497756,-0.043,,,,0.3388066832
1748247356587198046,-0.026,,,,0.3395767122
1748247356594898336,-0.002,,,,0.3403467412
1748247356602598626,0.021,,,,0.3411167702
1748247356610298916,0.036,,,,0.3418867992
1748247356617999206,0.053,,,,0.3426568282
1748247356625699496,0.068,,,,0.3434268572
1748247356633399786,0.065,,,,0.3441968862
1748247356641100076,0.043,,,,0.3449669152
1748247356648800366,-0.009,,,,0.3457369442
1748247356656500656,-0.089,,,,0.3465069732
1748247356664200946,-0.172,,,,0.3472770022
1748247356671901236,-0.235,,,,0.3480470312
1748247356679601526,-0.274,,,,0.3488170602
1748247356687301816,-0.296,,,,0.3495870892
1748247356695002106,-0.308,,,,0.3503571182
1748247356702702396,-0.31,,,,0.3511271472
1748247356710402686,-0.301,,,,0.3518971762
1748247356718102976,-0.291,,,,0.3526672052
1748247356725803266,-0.284,,,,0.3534372342
1748247356733503556,-0.274,,,,0.3542072632
1748247356741203846,-0.262,,,,0.3549772922
1748247356748904136,-0.255,,,,0.3557473212
1748247356756604426,-0.247,,,,0.3565173502
1748247356764304716,-0.238,,,,0.3572873792
1748247356772005006,-0.228,,,,0.3580574082
1748247356779705296,-0.221,,,,0.3588274372
1748247356787405586,-0.213,,,,0.3595974662
1748247356795105876,-0.206,,,,0.3603674952
1748247356802806166,-0.199,,,,0.3611375242
1748247356810506456,-0.194,,,,0.3619075532
1748247356818206746,-0.191,,,,0.3626775822
1748247356825907036,-0.187,,,,0.3634476112
1748247356833607326,-0.182,,,,0.3642176402
1748247356841307616,-0.179,,,,0.3649876692
1748247356849007906,-0.182,,,,0.3657576982
1748247356856708196,-0.182,,,,0.3665277272
1748247356864408486,-0.179,,,,0.3672977562
1748247356872108776,-0.177,,,,0.3680677852
1748247356879809066,-0.179,,,,0.3688378142
1748247356887509356,-0.179,,,,0.3696078432
1748247356895209646,-0.179,,,,0.3703778722
1748247356902909936,-0.174,,,,0.3711479012
1748247356910610226,-0.177,,,,0.3719179302
1748247356918310516,-0.179,,,,0.3726879592
1748247356926010806,-0.179,,,,0.3734579882
1748247356933711096,-0.172,,,,0.3742280172
1748247356941411386,-0.172,,,,0.3749980462
1748247356949111676,-0.17,,,,0.3757680752
1748247356956811966,-0.17,,,,0.3765381042
1748247356964512256,-0.17,,,,0.3773081332
1748247356972212546,-0.17,,,,0.3780781622
1748247356979912836,-0.165,,,,0.3788481912
1748247356987613126,-0.17,,,,0.3796182202
1748247356995313416,-0.172,,,,0.3803882492
1748247357003013706,-0.165,,,,0.3811582782
1748247357010713996,-0.155,,,,0.3819283072
1748247357018414286,-0.157,,,,0.3826983362
1748247357026114576,-0.162,,,,0.3834683652
1748247357033814866,-0.16,,,,0.3842383942
1748247357041515156,-0.143,,,,0.3850084232
1748247357049215446,-0.116,,,,0.3857784522
1748247357056915736,-0.092,,,,0.3865484812
1748247357064616026,-0.094,,,,0.3873185102
1748247357072316316,-0.119,,,,0.3880885392
1748247357080016606,-0.15,,,,0.3888585682
1748247357087716896,-0.179,,,,0.3896285972
1748247357095417186,-0.189,,,,0.3903986262
1748247357103117476,-0.182,,,,0.3911686552
1748247357110817766,-0.177,,,,0.3919386842
1748247357118518056,-0.167,,,,0.3927087132
1748247357126218390,-0.162,82.0,757.0,,0.3934787466
1748247357133918680,-0.162,,,,0.3942487756
1748247357141618970,-0.167,,,,0.3950188046
1748247357149319260,-0.218,,,,0.3957888336
1748247357157019550,-0.213,,,,0.3965588626
1748247357164719840,0.204,,,,0.3973288916
1748247357172420130,0.966,,,,0.3980989206
1748247357180120420,1.401,,,,0.3988689496
1748247357187820710,1.095,,,,0.3996389786
1748247357195521000,0.094,,,,0.4004090076
1748247357203221290,-0.668,,,,0.4011790366
1748247357210921580,-0.378,,,,0.4019490656
1748247357218621870,-0.058,,,,0.4027190946
1748247357226322160,-0.301,,,,0.4034891236
1748247357234022450,-0.34,,,,0.4042591526
1748247357241722740,-0.182,,,,0.4050291816
1748247357249423030,-0.218,,,,0.4057992106
1748247357257123320,-0.255,,,,0.4065692396
1748247357264823610,-0.196,,,,0.4073392686
1748247357272523900,-0.182,,,,0.4081092976
1748247357280224190,-0.187,,,,0.4088793266
1748247357287924480,-0.16,,,,0.4096493556
1748247357295624770,-0.145,,,,0.4104193846
1748247357303325060,-0.138,,,,0.4111894136
1748247357311025350,-0.119,,,,0.4119594426
1748247357318725640,-0.102,,,,0.4127294716
1748247357326425930,-0.092,,,,0.4134995006
1748247357334126220,-0.075,,,,0.4142695296
1748247357341826510,-0.053,,,,0.4150395586
1748247357349526800,-0.031,,,,0.4158095876
1748247357357227090,-0.012,,,,0.4165796166
1748247357364927380,0.007,,,,0.4173496456
1748247357372627670,0.024,,,,0.4181196746
1748247357380327960,0.041,,,,0.4188897036
1748247357388028250,0.055,,,,0.4196597326
1748247357395728540,0.06,,,,0.4204297616
1748247357403428830,0.048,,,,0.4211997906
1748247357411129120,0.017,,,,0.4219698196
1748247357418829410,-0.048,,,,0.4227398486
1748247357426529700,-0.136,,,,0.4235098776
1748247357434229990,-0.206,,,,0.4242799066
1748247357441930280,-0.25,,,,0.4250499356
1748247357449630570,-0.284,,,,0.4258199646
1748247357457330860,-0.301,,,,0.4265899936
1748247357465031150,-0.306,,,,0.4273600226
1748247357472731440,-0.303,,,,0.4281300516
1748247357480431730,-0.301,,,,0.4289000806
1748247357488132020,-0.293,,,,0.4296701096
1748247357495832310,-0.284,,,,0.4304401386
1748247357503532600,-0.276,,,,0.4312101676
1748247357511232890,-0.269,,,,0.4319801966
1748247357518933180,-0.259,,,,0.4327502256
1748247357526633470,-0.252,,,,0.4335202546
1748247357534333760,-0.247,,,,0.4342902836
1748247357542034050,-0.235,,,,0.4350603126
1748247357549734340,-0.225,,,,0.4358303416
1748247357557434630,-0.221,,,,0.4366003706
1748247357565134920,-0.216,,,,0.4373703996
1748247357572835210,-0.211,,,,0.4381404286
1748247357580535500,-0.204,,,,0.4389104576
1748247357588235790,-0.201,,,,0.4396804866
1748247357595936080,-0.201,,,,0.4404505156
1748247357603636370,-0.199,,,,0.4412205446
1748247357611336660,-0.194,,,,0.4419905736
1748247357619036950,-0.194,,,,0.4427606026
1748247357626737240,-0.196,,,,0.4435306316
1748247357634437530,-0.199,,,,0.4443006606
1748247357642137820,-0.194,,,,0.4450706896
1748247357649838110,-0.196,,,,0.4458407186
1748247357657538400,-0.201,,,,0.4466107476
1748247357665238690,-0.201,,,,0.4473807766
1748247357672938980,-0.194,,,,0.4481508056
1748247357680639270,-0.194,,,,0.4489208346
1748247357688339604,-0.196,,,,0.449690868
1748247357696039476,-0.196,,,,0.4504608552
1748247357703739348,-0.196,,,,0.4512308424
1748247357711439220,-0.196,,,,0.4520008296
1748247357719139092,-0.191,,,,0.4527708168
1748247357726838964,-0.191,,,,0.453540804
1748247357734538836,-0.189,,,,0.4543107912
1748247357742238708,-0.182,,,,0.4550807784
1748247357749938580,-0.184,,,,0.4558507656
1748247357757638452,-0.194,,,,0.4566207528
1748247357765338324,-0.184,,,,0.45739074
1748247357773038196,-0.177,,,,0.4581607272
1748247357780738068,-0.182,,,,0.4589307144
1748247357788437940,-0.182,,,,0.4597007016
1748247357796137812,-0.17,,,,0.4604706888
1748247357803837684,-0.165,,,,0.461240676
1748247357811537556,-0.174,,,,0.4620106632
1748247357819237428,-0.172,,,,0.4627806504
1748247357826937300,-0.15,,,,0.4635506376
1748247357834637172,-0.126,,,,0.4643206248
1748247357842337044,-0.104,,,,0.465090612
1748247357850036916,-0.106,,,,0.4658605992
1748247357857736788,-0.133,,,,0.4666305864
1748247357865436660,-0.167,,,,0.4674005736
1748247357873136532,-0.201,,,,0.4681705608
1748247357880836404,-0.208,,,,0.468940548
1748247357888536276,-0.191,,,,0.4697105352
1748247357896236148,-0.182,,,,0.4704805224
1748247357903936020,-0.184,,,,0.4712505096
1748247357911635892,-0.182,,,,0.4720204968
1748247357919335764,-0.172,,,,0.472790484
1748247357927035636,-0.167,,,,0.4735604712
1748247357934735508,-0.218,,,,0.4743304584
1748247357942435380,-0.218,,,,0.4751004456
1748247357950135252,0.194,,,,0.4758704328
1748247357957835124,0.961,,,,0.47664042
1748247357965534996,1.399,,,,0.4774104072
1748247357973234868,1.093,,,,0.4781803944
1748247357980934740,0.092,,,,0.4789503816
1748247357988634612,-0.6990000000000001,,,,0.4797203688
1748247357996334484,-0.427,,,,0.480490356
1748247358004034356,-0.075,,,,0.4812603432
1748247358011734228,-0.303,,,,0.4820303304
1748247358019434100,-0.361,,,,0.4828003176
1748247358027133972,-0.208,,,,0.4835703048
1748247358034833844,-0.23,,,,0.484340292
1748247358042533716,-0.267,,,,0.4851102792
1748247358050233588,-0.211,,,,0.4858802664
1748247358057933460,-0.191,,,,0.4866502536
1748247358065633332,-0.201,,,,0.4874202408
1748247358073333204,-0.182,,,,0.488190228
1748247358081033076,-0.165,,,,0.4889602152
1748247358088732948,-0.155,,,,0.4897302024
1748247358096432820,-0.133,,,,0.4905001896
1748247358104132692,-0.114,,,,0.4912701768
1748247358111832564,-0.102,,,,0.492040164
1748247358119532436,-0.08,,,,0.4928101512
1748247358127232308,-0.055,,,,0.4935801384
1748247358134932180,-0.041,,,,0.4943501256
1748247358142632052,-0.024,,,,0.4951201128
1748247358150331924,0.0,,,,0.4958901
1748247358158031796,0.021,,,,0.4966600872
1748247358165731668,0.038,,,,0.4974300744
1748247358173431540,0.055,,,,0.4982000616
1748247358181131412,0.063,,,,0.4989700488
1748247358188831284,0.051,,,,0.499740036
1748247358196531156,0.017,,,,0.5005100232
1748247358204231028,-0.038,,,,0.5012800104
1748247358211930900,-0.123,,,,0.5020499976
1748247358219630772,-0.206,,,,0.5028199848
1748247358227330644,-0.262,,,,0.503589972
1748247358235030516,-0.293,,,,0.5043599592
1748247358242730388,-0.31,,,,0.5051299464
1748247358250430300,-0.318,82.0,716.0,,0.5058999376
1748247358258130590,-0.318,,742.0,,0.5066699666
1748247358265830880,-0.31,,,,0.5074399956
1748247358273531170,-0.298,,,,0.5082100246
1748247358281231460,-0.291,,,,0.5089800536
1748247358288931750,-0.291,,,,0.5097500826
1748247358296632040,-0.269,,,,0.5105201116
1748247358304332330,-0.255,,,,0.5112901406
1748247358312032620,-0.264,,,,0.5120601696
1748247358319732910,-0.257,,,,0.5128301986
1748247358327433200,-0.233,,,,0.5136002276
1748247358335133490,-0.228,,,,0.5143702566
1748247358342833780,-0.23,,,,0.5151402856
1748247358350534070,-0.221,,,,0.5159103146
1748247358358234360,-0.213,,,,0.5166803436
1748247358365934650,-0.206,,,,0.5174503726
1748247358373634940,-0.191,,,,0.5182204016
1748247358381335230,-0.189,,,,0.5189904306
1748247358389035520,-0.199,,,,0.5197604596
1748247358396735810,-0.191,,,,0.5205304886
1748247358404436100,-0.179,,,,0.5213005176
1748247358412136390,-0.182,,,,0.5220705466
1748247358419836680,-0.191,,,,0.5228405756
1748247358427536970,-0.191,,,,0.5236106046
1748247358435237260,-0.184,,,,0.5243806336
1748247358442937550,-0.184,,,,0.5251506626
1748247358450637840,-0.182,,,,0.5259206916
1748247358458338130,-0.182,,,,0.5266907206
1748247358466038420,-0.184,,,,0.5274607496
1748247358473738710,-0.182,,,,0.5282307786
1748247358481439000,-0.187,,,,0.5290008076
1748247358489139290,-0.191,,,,0.5297708366
1748247358496839580,-0.184,,,,0.5305408656
1748247358504539870,-0.182,,,,0.5313108946
1748247358512240160,-0.184,,,,0.5320809236
1748247358519940450,-0.182,,,,0.5328509526
1748247358527640740,-0.179,,,,0.5336209816
1748247358535341030,-0.172,,,,0.5343910106
1748247358543041320,-0.167,,,,0.5351610396
1748247358550741610,-0.172,,,,0.5359310686
1748247358558441900,-0.16,,,,0.5367010976
1748247358566142190,-0.138,,,,0.5374711266
1748247358573842480,-0.119,,,,0.5382411556
1748247358581542770,-0.102,,,,0.5390111846
1748247358589243060,-0.106,,,,0.5397812136
1748247358596943350,-0.138,,,,0.5405512426
1748247358604643640,-0.17,,,,0.5413212716
1748247358612343930,-0.194,,,,0.5420913006
1748247358620044220,-0.201,,,,0.5428613296
1748247358627744510,-0.196,,,,0.5436313586
1748247358635444800,-0.189,,,,0.5444013876
1748247358643145090,-0.184,,,,0.5451714166
1748247358650845380,-0.182,,,,0.5459414456
1748247358658545670,-0.172,,,,0.5467114746
1748247358666245960,-0.165,,,,0.5474815036
1748247358673946250,-0.199,,,,0.5482515326
1748247358681646540,-0.216,,,,0.5490215616
1748247358689346830,0.128,,,,0.5497915906
1748247358697047120,0.869,,,,0.5505616196
1748247358704747410,1.328,,,,0.5513316486
1748247358712447700,1.025,,,,0.5521016776
1748247358720147990,0.065,,,,0.5528717066
1748247358727848280,-0.714,,,,0.5536417356
1748247358735548570,-0.478,,,,0.5544117646
1748247358743248860,-0.063,,,,0.5551817936
1748247358750949150,-0.24,,,,0.5559518226
1748247358758649440,-0.335,,,,0.5567218516
1748247358766349730,-0.184,,,,0.5574918806
1748247358774050020,-0.189,,,,0.5582619096
1748247358781750310,-0.238,,,,0.5590319386
1748247358789450600,-0.189,,,,0.5598019676
1748247358797150890,-0.162,,,,0.5605719966
1748247358804851180,-0.172,,,,0.5613420256
1748247358812551518,-0.15,82.0,767.0,,0.5621120594
1748247358820251808,-0.131,,,,0.5628820884
1748247358827952098,-0.128,,,,0.5636521174
1748247358835652388,-0.119,,,,0.5644221464
1748247358843352678,-0.097,,,,0.5651921754
1748247358851052968,-0.077,,,,0.5659622044
1748247358858753258,-0.06,,,,0.5667322334
1748247358866453548,-0.043,,,,0.5675022624
1748247358874153838,-0.021,,,,0.5682722914
1748247358881854128,0.002,,,,0.5690423204
1748247358889554418,0.024,,,,0.5698123494
1748247358897254708,0.051,,,,0.5705823784
1748247358904954998,0.072,,,,0.5713524074
1748247358912655288,0.085,,,,0.5721224364
1748247358920355578,0.089,,,,0.5728924654
1748247358928055868,0.085,,,,0.5736624944
1748247358935756158,0.053,,,,0.5744325234
1748247358943456448,-0.017,,,,0.5752025524
1748247358951156738,-0.114,,,,0.5759725814
1748247358958857028,-0.196,,,,0.5767426104
1748247358966557318,-0.247,,,,0.5775126394
1748247358974257608,-0.286,,,,0.5782826684
1748247358981957898,-0.308,,,,0.5790526974
1748247358989658188,-0.313,,,,0.5798227264
1748247358997358478,-0.31,,,,0.5805927554
1748247359005058768,-0.306,,,,0.5813627844
1748247359012759058,-0.298,,,,0.5821328134
1748247359020459348,-0.289,,,,0.5829028424
1748247359028159638,-0.281,,,,0.5836728714
1748247359035859928,-0.274,,,,0.5844429004
1748247359043560218,-0.267,,,,0.5852129294
1748247359051260508,-0.259,,,,0.5859829584
1748247359058960798,-0.245,,,,0.5867529874
1748247359066661088,-0.235,,,,0.5875230164
1748247359074361378,-0.23,,,,0.5882930454
1748247359082061668,-0.223,,,,0.5890630744
1748247359089761958,-0.213,,,,0.5898331034
1748247359097462248,-0.201,,,,0.5906031324
1748247359105162538,-0.199,,,,0.5913731614
1748247359112862828,-0.196,,,,0.5921431904
1748247359120563118,-0.191,,,,0.5929132194
1748247359128263408,-0.187,,,,0.5936832484
1748247359135963698,-0.182,,,,0.5944532774
1748247359143663988,-0.182,,,,0.5952233064
1748247359151364278,-0.182,,,,0.5959933354
1748247359159064568,-0.179,,,,0.5967633644
1748247359166764858,-0.179,,,,0.5975333934
1748247359174465148,-0.182,,,,0.5983034224
1748247359182165438,-0.182,,,,0.5990734514
1748247359189865728,-0.179,,,,0.5998434804
1748247359197566018,-0.182,,,,0.6006135094
1748247359205266308,-0.182,,,,0.6013835384
1748247359212966598,-0.182,,,,0.6021535674
1748247359220666888,-0.182,,,,0.6029235964
1748247359228367178,-0.182,,,,0.6036936254
1748247359236067468,-0.179,,,,0.6044636544
1748247359243767758,-0.177,,,,0.6052336834
1748247359251468048,-0.177,,,,0.6060037124
1748247359259168338,-0.177,,,,0.6067737414
1748247359266868628,-0.174,,,,0.6075437704
1748247359274568918,-0.174,,,,0.6083137994
1748247359282269208,-0.174,,,,0.6090838284
1748247359289969498,-0.172,,,,0.6098538574
1748247359297669788,-0.167,,,,0.6106238864
1748247359305370078,-0.16,,,,0.6113939154
1748247359313070368,-0.157,,,,0.6121639444
1748247359320770658,-0.157,,,,0.6129339734
1748247359328470948,-0.155,,,,0.6137040024
1748247359336171238,-0.136,,,,0.6144740314
1748247359343871528,-0.104,,,,0.6152440604
1748247359351571818,-0.089,,,,0.6160140894
1748247359359272108,-0.104,,,,0.6167841184
1748247359366972398,-0.138,,,,0.6175541474
1748247359374672732,-0.172,,,,0.6183241808
1748247359382373022,-0.189,,,,0.6190942098
1748247359390073312,-0.184,,,,0.6198642388
1748247359397773602,-0.174,,,,0.6206342678
1748247359405473892,-0.167,,,,0.6214042968
1748247359413174182,-0.167,,,,0.6221743258
1748247359420874472,-0.16,,,,0.6229443548
1748247359428574762,-0.155,,,,0.6237143838
1748247359436275052,-0.184,,,,0.6244844128
1748247359443975342,-0.24,,,,0.6252544418
1748247359451675632,-0.053,,,,0.6260244708
1748247359459375922,0.592,,,,0.6267944998
1748247359467076212,1.236,,,,0.6275645288
1748247359474776502,1.265,,,,0.6283345578
1748247359482476792,0.517,,,,0.6291045868
1748247359490177082,-0.454,,,,0.6298746158
1748247359497877372,-0.5700000000000001,,,,0.6306446448
1748247359505577662,-0.119,,,,0.6314146738
1748247359513277952,-0.167,,,,0.6321847028
1748247359520978242,-0.359,,,,0.6329547318
1748247359528678532,-0.233,,,,0.6337247608
1748247359536378822,-0.179,,,,0.6344947898
1748247359544079112,-0.247,,,,0.6352648188
1748247359551779402,-0.216,,,,0.6360348478
1748247359559479692,-0.17,,,,0.6368048768
1748247359567179982,-0.179,,,,0.6375749058
1748247359574880272,-0.172,,,,0.6383449348
1748247359582580562,-0.145,,,,0.6391149638
1748247359590280852,-0.138,,,,0.6398849928
1748247359597981142,-0.126,,,,0.6406550218
1748247359605681432,-0.109,,,,0.6414250508
1748247359613381722,-0.094,,,,0.6421950798
1748247359621082012,-0.077,,,,0.6429651088
1748247359628782302,-0.058,,,,0.6437351378
1748247359636482592,-0.043,,,,0.6445051668
1748247359644182882,-0.021,,,,0.6452751958
1748247359651883172,0.004,,,,0.6460452248
1748247359659583462,0.024,,,,0.6468152538
1748247359667283752,0.041,,,,0.6475852828
1748247359674984042,0.055,,,,0.6483553118
1748247359682684332,0.07,,,,0.6491253408
1748247359690384622,0.07,,,,0.6498953698
1748247359698084912,0.053,,,,0.6506653988
1748247359705785202,0.007,,,,0.6514354278
1748247359713485492,-0.065,,,,0.6522054568
1748247359721185782,-0.153,,,,0.6529754858
1748247359728886072,-0.223,,,,0.6537455148
1748247359736586362,-0.262,,,,0.6545155438
1748247359744286652,-0.281,,,,0.6552855728
1748247359751986942,-0.296,,,,0.6560556018
1748247359759687232,-0.301,,,,0.6568256308
1748247359767387522,-0.296,,,,0.6575956598
1748247359775087812,-0.289,,,,0.6583656888
1748247359782788102,-0.281,,,,0.6591357178
1748247359790488392,-0.272,,,,0.6599057468
1748247359798188682,-0.259,,,,0.6606757758
1748247359805888972,-0.255,,,,0.6614458048
1748247359813589262,-0.245,,,,0.6622158338
1748247359821289552,-0.233,,,,0.6629858628
1748247359828989842,-0.225,,,,0.6637558918
1748247359836690132,-0.223,,,,0.6645259208
1748247359844390422,-0.216,,,,0.6652959498
1748247359852090712,-0.204,,,,0.6660659788
1748247359859791002,-0.196,,,,0.6668360078
1748247359867491292,-0.194,,,,0.6676060368
1748247359875191582,-0.189,,,,0.6683760658
1748247359882891872,-0.187,,,,0.6691460948
1748247359890592162,-0.187,,,,0.6699161238
1748247359898292452,-0.182,,,,0.6706861528
1748247359905992742,-0.177,,,,0.6714561818
1748247359913693032,-0.182,,,,0.6722262108
1748247359921393322,-0.182,,,,0.6729962398
1748247359929093612,-0.179,,,,0.6737662688
1748247359936793946,-0.179,82.0,785.0,,0.6745363022
1748247359944493818,-0.182,,,,0.6753062894
1748247359952193690,-0.179,,,,0.6760762766
1748247359959893562,-0.177,,,,0.6768462638
1748247359967593434,-0.179,,,,0.677616251
1748247359975293306,-0.177,,,,0.6783862382
1748247359982993178,-0.172,,,,0.6791562254
1748247359990693050,-0.172,,,,0.6799262126
1748247359998392922,-0.172,,,,0.6806961998
1748247360006092794,-0.172,,,,0.681466187
1748247360013792666,-0.172,,,,0.6822361742
1748247360021492538,-0.167,,,,0.6830061614
1748247360029192410,-0.162,,,,0.6837761486
1748247360036892282,-0.162,,,,0.6845461358
1748247360044592154,-0.167,,,,0.685316123
1748247360052292026,-0.17,,,,0.6860861102
1748247360059991898,-0.16,,,,0.6868560974
1748247360067691770,-0.16,,,,0.6876260846
1748247360075391642,-0.165,,,,0.6883960718
1748247360083091514,-0.165,,,,0.689166059
1748247360090791386,-0.16,,,,0.6899360462
1748247360098491258,-0.155,,,,0.6907060334
1748247360106191130,-0.153,,,,0.6914760206
1748247360113891002,-0.155,,,,0.6922460078
1748247360121590874,-0.153,,,,0.693015995
1748247360129290746,-0.143,,,,0.6937859822
1748247360136990618,-0.116,,,,0.6945559694
1748247360144690490,-0.085,,,,0.6953259566
1748247360152390362,-0.082,,,,0.6960959438
1748247360160090234,-0.106,,,,0.696865931
1748247360167790106,-0.131,,,,0.6976359182
1748247360175489978,-0.162,,,,0.6984059054
1748247360183189850,-0.182,,,,0.6991758926
1748247360190889722,-0.177,,,,0.6999458798
1748247360198589594,-0.162,,,,0.700715867
1748247360206289466,-0.16,,,,0.7014858542
1748247360213989338,-0.16,,,,0.7022558414
1748247360221689210,-0.153,,,,0.7030258286
1748247360229389082,-0.15,,,,0.7037958158
1748247360237088954,-0.191,,,,0.704565803
1748247360244788826,-0.228,,,,0.7053357902
1748247360252488698,0.06,,,,0.7061057774
1748247360260188570,0.782,,,,0.7068757646
1748247360267888442,1.355,,,,0.7076457518
1748247360275588314,1.255,,,,0.708415739
1748247360283288186,0.376,,,,0.7091857262
1748247360290988058,-0.5680000000000001,,,,0.7099557134
1748247360298687930,-0.497,,,,0.7107257006
1748247360306387802,-0.063,,,,0.7114956878
1748247360314087674,-0.221,,,,0.712265675
1748247360321787546,-0.361,,,,0.7130356622
1748247360329487418,-0.208,,,,0.7138056494
1748247360337187290,-0.194,,,,0.7145756366
1748247360344887162,-0.247,,,,0.7153456238
1748247360352587034,-0.199,,,,0.716115611
1748247360360286906,-0.17,,,,0.7168855982
1748247360367986778,-0.184,,,,0.7176555854
1748247360375686650,-0.167,,,,0.7184255726
1748247360383386522,-0.138,,,,0.7191955598
1748247360391086394,-0.133,,,,0.719965547
1748247360398786266,-0.126,,,,0.7207355342
1748247360406486138,-0.106,,,,0.7215055214
1748247360414186010,-0.089,,,,0.7222755086
1748247360421885882,-0.077,,,,0.7230454958
1748247360429585754,-0.06,,,,0.723815483
1748247360437285626,-0.041,,,,0.7245854702
1748247360444985498,-0.019,,,,0.7253554574
1748247360452685370,0.0,,,,0.7261254446
1748247360460385242,0.019,,,,0.7268954318
1748247360468085114,0.038,,,,0.727665419
1748247360475784986,0.048,,,,0.7284354062
1748247360483484858,0.053,,,,0.7292053934
1748247360491184730,0.055,,,,0.7299753806
1748247360498884642,0.038,,,,0.7307453718
1748247360506584932,-0.012,,,,0.7315154008
1748247360514285222,-0.082,,,,0.7322854298
1748247360521985512,-0.157,,,,0.7330554588
1748247360529685802,-0.221,,,,0.7338254878
1748247360537386092,-0.262,,,,0.7345955168
1748247360545086382,-0.281,,,,0.7353655458
1748247360552786672,-0.293,,,,0.7361355748
1748247360560486962,-0.296,,,,0.7369056038
1748247360568187252,-0.291,,,,0.7376756328
1748247360575887542,-0.284,,,,0.7384456618
1748247360583587832,-0.276,,,,0.7392156908
1748247360591288122,-0.267,,,,0.7399857198
1748247360598988412,-0.259,,,,0.7407557488
1748247360606688702,-0.252,,,,0.7415257778
1748247360614388992,-0.242,,,,0.7422958068
1748247360622089282,-0.233,,,,0.7430658358
1748247360629789572,-0.225,,,,0.7438358648
1748247360637489862,-0.216,,,,0.7446058938
1748247360645190152,-0.211,,,,0.7453759228
1748247360652890442,-0.204,,,,0.7461459518
1748247360660590732,-0.196,,,,0.7469159808
1748247360668291022,-0.191,,,,0.7476860098
1748247360675991312,-0.189,,,,0.7484560388
1748247360683691602,-0.189,,,,0.7492260678
1748247360691391892,-0.187,,,,0.7499960968
1748247360699092182,-0.182,,,,0.7507661258
1748247360706792472,-0.184,,,,0.7515361548
1748247360714492762,-0.184,,,,0.7523061838
1748247360722193052,-0.182,,,,0.7530762128
1748247360729893342,-0.184,,,,0.7538462418
1748247360737593632,-0.184,,,,0.7546162708
1748247360745293922,-0.184,,,,0.7553862998
1748247360752994212,-0.184,,,,0.7561563288
1748247360760694502,-0.184,,,,0.7569263578
1748247360768394792,-0.182,,,,0.7576963868
1748247360776095082,-0.179,,,,0.7584664158
1748247360783795372,-0.177,,,,0.7592364448
1748247360791495662,-0.182,,,,0.7600064738
1748247360799195952,-0.184,,,,0.7607765028
1748247360806896242,-0.184,,,,0.7615465318
1748247360814596532,-0.182,,,,0.7623165608
1748247360822296822,-0.177,,,,0.7630865898
1748247360829997112,-0.177,,,,0.7638566188
1748247360837697402,-0.179,,,,0.7646266478
1748247360845397692,-0.182,,,,0.7653966768
1748247360853097982,-0.174,,,,0.7661667058
1748247360860798272,-0.172,,,,0.7669367348
1748247360868498562,-0.182,,,,0.7677067638
1748247360876198852,-0.182,,,,0.7684767928
1748247360883899142,-0.177,,,,0.7692468218
1748247360891599432,-0.177,,,,0.7700168508
1748247360899299722,-0.172,,,,0.7707868798
1748247360907000012,-0.172,,,,0.7715569088
1748247360914700302,-0.174,,,,0.7723269378
1748247360922400592,-0.167,,,,0.7730969668
1748247360930100882,-0.16,,,,0.7738669958
1748247360937801172,-0.162,,,,0.7746370248
1748247360945501462,-0.162,,,,0.7754070538
1748247360953201752,-0.145,,,,0.7761770828
1748247360960902042,-0.106,,,,0.7769471118
1748247360968602332,-0.094,,,,0.7777171408
1748247360976302622,-0.116,,,,0.7784871698
1748247360984002912,-0.14,,,,0.7792571988
1748247360991703202,-0.17,,,,0.7800272278
1748247360999403492,-0.191,,,,0.7807972568
1748247361007103782,-0.194,,,,0.7815672858
1748247361014804072,-0.187,,,,0.7823373148
1748247361022504362,-0.177,,,,0.7831073438
1748247361030204652,-0.17,,,,0.7838773728
1748247361037904942,-0.167,,,,0.7846474018
1748247361045605232,-0.162,,,,0.7854174308
1748247361053305522,-0.179,,,,0.7861874598
1748247361061005856,-0.233,81.0,739.0,,0.7869574932
1748247361068706146,-0.06,,,,0.7877275222
1748247361076406436,0.583,,,,0.7884975512
1748247361084106726,1.26,,,,0.7892675802
1748247361091807016,1.345,,,,0.7900376092
1748247361099507306,0.634,,,,0.7908076382
1748247361107207596,-0.417,,,,0.7915776672
1748247361114907886,-0.646,,,,0.7923476962
1748247361122608176,-0.155,,,,0.7931177252
1748247361130308466,-0.143,,,,0.7938877542
1748247361138008756,-0.369,,,,0.7946577832
1748247361145709046,-0.255,,,,0.7954278122
1748247361153409336,-0.182,,,,0.7961978412
1748247361161109626,-0.25,,,,0.7969678702
1748247361168809916,-0.223,,,,0.7977378992
1748247361176510206,-0.174,,,,0.7985079282
1748247361184210496,-0.189,,,,0.7992779572
1748247361191910786,-0.179,,,,0.8000479862
1748247361199611076,-0.143,,,,0.8008180152
1748247361207311366,-0.128,,,,0.8015880442
1748247361215011656,-0.128,,,,0.8023580732
1748247361222711946,-0.111,,,,0.8031281022
1748247361230412236,-0.092,,,,0.8038981312
1748247361238112526,-0.08,,,,0.8046681602
1748247361245812816,-0.06,,,,0.8054381892
1748247361253513106,-0.038,,,,0.8062082182
1748247361261213396,-0.026,,,,0.8069782472
1748247361268913686,-0.007,,,,0.8077482762
1748247361276613976,0.024,,,,0.8085183052
1748247361284314266,0.043,,,,0.8092883342
1748247361292014556,0.048,,,,0.8100583632
1748247361299714846,0.053,,,,0.8108283922
1748247361307415136,0.058,,,,0.8115984212
1748247361315115426,0.051,,,,0.8123684502
1748247361322815716,0.014,,,,0.8131384792
1748247361330516006,-0.051,,,,0.8139085082
1748247361338216296,-0.128,,,,0.8146785372
1748247361345916586,-0.196,,,,0.8154485662
1748247361353616876,-0.242,,,,0.8162185952
1748247361361317166,-0.276,,,,0.8169886242
1748247361369017456,-0.298,,,,0.8177586532
1748247361376717746,-0.296,,,,0.8185286822
1748247361384418036,-0.289,,,,0.8192987112
1748247361392118326,-0.286,,,,0.8200687402
1748247361399818616,-0.276,,,,0.8208387692
1748247361407518906,-0.269,,,,0.8216087982
1748247361415219196,-0.269,,,,0.8223788272
1748247361422919486,-0.262,,,,0.8231488562
1748247361430619776,-0.25,,,,0.8239188852
1748247361438320066,-0.238,,,,0.8246889142
1748247361446020356,-0.23,,,,0.8254589432
1748247361453720646,-0.221,,,,0.8262289722
1748247361461420936,-0.213,,,,0.8269990012
1748247361469121226,-0.211,,,,0.8277690302
1748247361476821516,-0.201,,,,0.8285390592
1748247361484521806,-0.189,,,,0.8293090882
1748247361492222096,-0.196,,,,0.8300791172
1748247361499922386,-0.201,,,,0.8308491462
1748247361507622676,-0.194,,,,0.8316191752
1748247361515322966,-0.187,,,,0.8323892042
1748247361523023256,-0.184,,,,0.8331592332
1748247361530723546,-0.179,,,,0.8339292622
1748247361538423836,-0.177,,,,0.8346992912
1748247361546124126,-0.182,,,,0.8354693202
1748247361553824416,-0.182,,,,0.8362393492
1748247361561524706,-0.179,,,,0.8370093782
1748247361569224996,-0.184,,,,0.8377794072
1748247361576925286,-0.182,,,,0.8385494362
1748247361584625576,-0.177,,,,0.8393194652
1748247361592325866,-0.182,,,,0.8400894942
1748247361600026156,-0.184,,,,0.8408595232
1748247361607726446,-0.174,,,,0.8416295522
1748247361615426736,-0.172,,,,0.8423995812
1748247361623127070,-0.177,,,,0.8431696146
1748247361630827290,-0.177,,,,0.8439396366
1748247361638527510,-0.174,,,,0.8447096586
1748247361646227730,-0.174,,,,0.8454796806
1748247361653927950,-0.174,,,,0.8462497026
1748247361661628170,-0.172,,,,0.8470197246
1748247361669328390,-0.167,,,,0.8477897466
1748247361677028610,-0.172,,,,0.8485597686
1748247361684728830,-0.17,,,,0.8493297906
1748247361692429050,-0.155,,,,0.8500998126
1748247361700129270,-0.15,,,,0.8508698346
1748247361707829490,-0.16,,,,0.8516398566
1748247361715529710,-0.145,,,,0.8524098786
1748247361723229930,-0.106,,,,0.8531799006
1748247361730930150,-0.082,,,,0.8539499226
1748247361738630370,-0.097,,,,0.8547199446
1748247361746330590,-0.126,,,,0.8554899666
1748247361754030810,-0.157,,,,0.8562599886
1748247361761731030,-0.182,,,,0.8570300106
1748247361769431250,-0.189,,,,0.8578000326
1748247361777131470,-0.187,,,,0.8585700546
1748247361784831690,-0.179,,,,0.8593400766
1748247361792531910,-0.174,,,,0.8601100986
1748247361800232130,-0.167,,,,0.8608801206
1748247361807932350,-0.162,,,,0.8616501426
1748247361815632570,-0.16,,,,0.8624201646
1748247361823332790,-0.191,,,,0.8631901866
1748247361831033010,-0.179,,,,0.8639602086
1748247361838733230,0.204,,,,0.8647302306
1748247361846433450,0.942,,,,0.8655002526
1748247361854133670,1.348,,,,0.8662702746
1748247361861833890,0.986,,,,0.8670402966
1748247361869534110,0.0,,,,0.8678103186
1748247361877234330,-0.723,,,,0.8685803406
1748247361884934550,-0.434,,,,0.8693503626
1748247361892634770,-0.055,,,,0.8701203846
1748247361900334990,-0.252,,,,0.8708904066
1748247361908035210,-0.32,,,,0.8716604286
1748247361915735430,-0.172,,,,0.8724304506
1748247361923435650,-0.191,,,,0.8732004726
1748247361931135870,-0.23,,,,0.8739704946
1748247361938836090,-0.172,,,,0.8747405166
1748247361946536310,-0.155,,,,0.8755105386
1748247361954236530,-0.17,,,,0.8762805606
1748247361961936750,-0.143,,,,0.8770505826
1748247361969636970,-0.123,,,,0.8778206046
1748247361977337190,-0.121,,,,0.8785906266
1748247361985037410,-0.109,,,,0.8793606486
1748247361992737630,-0.087,,,,0.8801306706
1748247362000437850,-0.072,,,,0.8809006926
1748247362008138070,-0.06,,,,0.8816707146
1748247362015838290,-0.041,,,,0.8824407366
1748247362023538510,-0.021,,,,0.8832107586
1748247362031238730,-0.002,,,,0.8839807806
1748247362038938950,0.021,,,,0.8847508026
1748247362046639170,0.038,,,,0.8855208246
1748247362054339390,0.048,,,,0.8862908466
1748247362062039610,0.063,,,,0.8870608686
1748247362069739830,0.068,,,,0.8878308906
1748247362077440050,0.058,,,,0.8886009126
1748247362085140270,0.031,,,,0.8893709346
1748247362092840490,-0.024,,,,0.8901409566
1748247362100540710,-0.102,,,,0.8909109786
1748247362108240930,-0.184,,,,0.8916810006
1748247362115941150,-0.245,,,,0.8924510226
1748247362123641370,-0.279,,,,0.8932210446
1748247362131341590,-0.303,,,,0.8939910666
1748247362139041810,-0.313,,,,0.8947610886
1748247362146742030,-0.315,,,,0.8955311106
1748247362154442250,-0.31,,,,0.8963011326
1748247362162142470,-0.303,,,,0.8970711546
1748247362169842690,-0.296,,,,0.8978411766
1748247362177542910,-0.284,,,,0.8986111986
1748247362185243202,-0.281,81.0,766.0,,0.8993812278
1748247362192943144,-0.276,,800.0,,0.900151222
1748247362200643086,-0.262,,,,0.9009212162
1748247362208343028,-0.252,,,,0.9016912104
1748247362216042970,-0.245,,,,0.9024612046
1748247362223742912,-0.238,,,,0.9032311988
1748247362231442854,-0.23,,,,0.904001193
1748247362239142796,-0.223,,,,0.9047711872
1748247362246842738,-0.221,,,,0.9055411814
1748247362254542680,-0.213,,,,0.9063111756
1748247362262242622,-0.204,,,,0.9070811698
1748247362269942564,-0.204,,,,0.907851164
1748247362277642506,-0.201,,,,0.9086211582
1748247362285342448,-0.196,,,,0.9093911524
1748247362293042390,-0.191,,,,0.9101611466
1748247362300742332,-0.191,,,,0.9109311408
1748247362308442274,-0.191,,,,0.911701135
1748247362316142216,-0.187,,,,0.9124711292
1748247362323842158,-0.187,,,,0.9132411234
1748247362331542100,-0.191,,,,0.9140111176
1748247362339242042,-0.189,,,,0.9147811118
1748247362346941984,-0.184,,,,0.915551106
1748247362354641926,-0.184,,,,0.9163211002
1748247362362341868,-0.189,,,,0.9170910944
1748247362370041810,-0.187,,,,0.9178610886
1748247362377741752,-0.179,,,,0.9186310828
1748247362385441694,-0.182,,,,0.919401077
1748247362393141636,-0.184,,,,0.9201710712
1748247362400841578,-0.179,,,,0.9209410654
1748247362408541520,-0.177,,,,0.9217110596
1748247362416241462,-0.179,,,,0.9224810538
1748247362423941404,-0.182,,,,0.923251048
1748247362431641346,-0.177,,,,0.9240210422
1748247362439341288,-0.17,,,,0.9247910364
1748247362447041230,-0.167,,,,0.9255610306
1748247362454741172,-0.17,,,,0.9263310248
1748247362462441114,-0.17,,,,0.927101019
1748247362470141056,-0.17,,,,0.9278710132
1748247362477840998,-0.162,,,,0.9286410074
1748247362485540940,-0.136,,,,0.9294110016
1748247362493240882,-0.104,,,,0.9301809958
1748247362500940824,-0.094,,,,0.93095099
1748247362508640766,-0.114,,,,0.9317209842
1748247362516340708,-0.145,,,,0.9324909784
1748247362524040650,-0.174,,,,0.9332609726
1748247362531740592,-0.189,,,,0.9340309668
1748247362539440534,-0.179,,,,0.934800961
1748247362547140476,-0.17,,,,0.9355709552
1748247362554840418,-0.167,,,,0.9363409494
1748247362562540360,-0.162,,,,0.9371109436
1748247362570240302,-0.155,,,,0.9378809378
1748247362577940244,-0.16,,,,0.938650932
1748247362585640186,-0.211,,,,0.9394209262
1748247362593340128,-0.211,,,,0.9401909204
1748247362601040070,0.165,,,,0.9409609146
1748247362608740012,0.884,,,,0.9417309088
1748247362616439954,1.323,,,,0.942500903
1748247362624139896,1.044,,,,0.9432708972
1748247362631839838,0.092,,,,0.9440408914
1748247362639539780,-0.629,,,,0.9448108856
1748247362647239722,-0.366,,,,0.9455808798
1748247362654939664,-0.063,,,,0.946350874
1748247362662639606,-0.279,,,,0.9471208682
1748247362670339548,-0.323,,,,0.9478908624
1748247362678039490,-0.182,,,,0.9486608566
1748247362685739432,-0.208,,,,0.9494308508
1748247362693439374,-0.24,,,,0.950200845
1748247362701139316,-0.182,,,,0.9509708392
1748247362708839258,-0.172,,,,0.9517408334
1748247362716539200,-0.182,,,,0.9525108276
1748247362724239142,-0.155,,,,0.9532808218
1748247362731939084,-0.138,,,,0.954050816
1748247362739639026,-0.136,,,,0.9548208102
1748247362747338984,-0.119,80.0,818.0,,0.955590806
1748247362755039274,-0.102,,,,0.956360835
1748247362762739564,-0.087,,,,0.957130864
1748247362770439854,-0.07,,,,0.957900893
1748247362778140144,-0.051,,,,0.958670922
1748247362785840434,-0.034,,,,0.959440951
1748247362793540724,-0.012,,,,0.96021098
1748247362801241014,0.009,,,,0.960981009
1748247362808941304,0.026,,,,0.961751038
1748247362816641594,0.043,,,,0.962521067
1748247362824341884,0.053,,,,0.963291096
1748247362832042174,0.053,,,,0.964061125
1748247362839742464,0.055,,,,0.964831154
1748247362847442754,0.041,,,,0.965601183
1748247362855143044,-0.012,,,,0.966371212
1748247362862843334,-0.092,,,,0.967141241
1748247362870543624,-0.162,,,,0.96791127
1748247362878243914,-0.216,,,,0.968681299
1748247362885944204,-0.257,,,,0.969451328
1748247362893644494,-0.279,,,,0.970221357
1748247362901344784,-0.284,,,,0.970991386
1748247362909045074,-0.284,,,,0.971761415
1748247362916745364,-0.284,,,,0.972531444
1748247362924445654,-0.281,,,,0.973301473
1748247362932145944,-0.269,,,,0.974071502
1748247362939846234,-0.252,,,,0.974841531
1748247362947546524,-0.242,,,,0.97561156
1748247362955246814,-0.24,,,,0.976381589
1748247362962947104,-0.235,,,,0.977151618
1748247362970647394,-0.221,,,,0.977921647
1748247362978347684,-0.204,,,,0.978691676
1748247362986047974,-0.196,,,,0.979461705
1748247362993748264,-0.194,,,,0.980231734
1748247363001448554,-0.187,,,,0.981001763
1748247363009148844,-0.177,,,,0.981771792
1748247363016849134,-0.172,,,,0.982541821
1748247363024549424,-0.177,,,,0.98331185
1748247363032249714,-0.174,,,,0.984081879
1748247363039950004,-0.167,,,,0.984851908
1748247363047650294,-0.162,,,,0.985621937
1748247363055350584,-0.165,,,,0.986391966
1748247363063050874,-0.17,,,,0.987161995
1748247363070751164,-0.165,,,,0.987932024
1748247363078451454,-0.16,,,,0.988702053
1748247363086151744,-0.162,,,,0.989472082
1748247363093852034,-0.162,,,,0.990242111
1748247363101552324,-0.157,,,,0.99101214
1748247363109252614,-0.16,,,,0.991782169
1748247363116952904,-0.165,,,,0.992552198
1748247363124653194,-0.167,,,,0.993322227
1748247363132353484,-0.165,,,,0.994092256
1748247363140053774,-0.157,,,,0.994862285
1748247363147754064,-0.148,,,,0.995632314
1748247363155454354,-0.148,,,,0.996402343
1748247363163154644,-0.153,,,,0.997172372
1748247363170854934,-0.155,,,,0.997942401
1748247363178555224,-0.145,,,,0.99871243
1748247363186255514,-0.145,,,,0.999482459
1748247363193955804,-0.148,,,,1.000252488
1748247363201656094,-0.145,,,,1.001022517
1748247363209356384,-0.145,,,,1.001792546
1748247363217056674,-0.138,,,,1.002562575
1748247363224756964,-0.131,,,,1.003332604
1748247363232457254,-0.136,,,,1.004102633
1748247363240157544,-0.138,,,,1.004872662
1748247363247857834,-0.126,,,,1.005642691
1748247363255558124,-0.097,,,,1.00641272
1748247363263258414,-0.07,,,,1.007182749
1748247363270958704,-0.07,,,,1.007952778
1748247363278658994,-0.089,,,,1.008722807
1748247363286359284,-0.116,,,,1.009492836
1748247363294059574,-0.145,,,,1.010262865
1748247363301759864,-0.155,,,,1.011032894
1748247363309460198,-0.148,,,,1.0118029274
1748247363317160488,-0.136,,,,1.0125729564
1748247363324860778,-0.128,,,,1.0133429854
1748247363332561068,-0.128,,,,1.0141130144
1748247363340261358,-0.128,,,,1.0148830434
1748247363347961648,-0.138,,,,1.0156530724
1748247363355661938,-0.194,,,,1.0164231014
1748247363363362228,-0.116,,,,1.0171931304
1748247363371062518,0.417,,,,1.0179631594
1748247363378762808,1.151,,,,1.0187331884
1748247363386463098,1.408,,,,1.0195032174
1748247363394163388,0.889,,,,1.0202732464
1748247363401863678,-0.15,,,,1.0210432754
1748247363409563968,-0.621,,,,1.0218133044
1748247363417264258,-0.199,,,,1.0225833334
1748247363424964548,-0.075,,,,1.0233533624
1748247363432664838,-0.33,,,,1.0241233914
1748247363440365128,-0.262,,,,1.0248934204
1748247363448065418,-0.148,,,,1.0256634494
1748247363455765708,-0.216,,,,1.0264334784
1748247363463465998,-0.208,,,,1.0272035074
1748247363471166288,-0.148,,,,1.0279735364
1748247363478866578,-0.155,,,,1.0287435654
1748247363486566868,-0.157,,,,1.0295135944
1748247363494267158,-0.128,,,,1.0302836234
1748247363501967448,-0.111,,,,1.0310536524
1748247363509667738,-0.109,,,,1.0318236814
1748247363517368028,-0.094,,,,1.0325937104
1748247363525068318,-0.082,,,,1.0333637394
1748247363532768608,-0.065,,,,1.0341337684
1748247363540468898,-0.043,,,,1.0349037974
1748247363548169188,-0.031,,,,1.0356738264
1748247363555869478,-0.017,,,,1.0364438554
1748247363563569768,0.002,,,,1.0372138844
1748247363571270058,0.021,,,,1.0379839134
1748247363578970348,0.036,,,,1.0387539424
1748247363586670638,0.046,,,,1.0395239714
1748247363594370928,0.053,,,,1.0402940004
1748247363602071218,0.051,,,,1.0410640294
1748247363609771508,0.034,,,,1.0418340584
1748247363617471798,0.012,,,,1.0426040874
1748247363625172088,-0.034,,,,1.0433741164
1748247363632872378,-0.111,,,,1.0441441454
1748247363640572668,-0.182,,,,1.0449141744
1748247363648272958,-0.223,,,,1.0456842034
1748247363655973248,-0.257,,,,1.0464542324
1748247363663673538,-0.279,,,,1.0472242614
1748247363671373828,-0.284,,,,1.0479942904
1748247363679074118,-0.274,,,,1.0487643194
1748247363686774408,-0.272,,,,1.0495343484
1748247363694474698,-0.259,,,,1.0503043774
1748247363702174988,-0.245,,,,1.0510744064
1748247363709875278,-0.255,,,,1.0518444354
1748247363717575568,-0.262,,,,1.0526144644
1748247363725275858,-0.24,,,,1.0533844934
1748247363732976148,-0.213,,,,1.0541545224
1748247363740676438,-0.201,,,,1.0549245514
1748247363748376728,-0.206,,,,1.0556945804
1748247363756077018,-0.201,,,,1.0564646094
1748247363763777308,-0.184,,,,1.0572346384
1748247363771477598,-0.187,,,,1.0580046674
1748247363779177888,-0.199,,,,1.0587746964
1748247363786878178,-0.199,,,,1.0595447254
1748247363794578468,-0.174,,,,1.0603147544
1748247363802278758,-0.155,,,,1.0610847834
1748247363809979048,-0.165,,,,1.0618548124
1748247363817679338,-0.17,,,,1.0626248414
1748247363825379628,-0.165,,,,1.0633948704
1748247363833079918,-0.17,,,,1.0641648994
1748247363840780208,-0.167,,,,1.0649349284
1748247363848480498,-0.165,,,,1.0657049574
1748247363856180788,-0.157,,,,1.0664749864
1748247363863881078,-0.138,,,,1.0672450154
1748247363871581412,-0.14,80.0,766.0,,1.0680150488
1748247363879281702,-0.179,,,,1.0687850778
1748247363886981992,-0.189,,,,1.0695551068
1748247363894682282,-0.128,,,,1.0703251358
1748247363902382572,-0.068,,,,1.0710951648
1748247363910082862,-0.097,,,,1.0718651938
1748247363917783152,-0.143,,,,1.0726352228
1748247363925483442,-0.097,,,,1.0734052518
1748247363933183732,-0.048,,,,1.0741752808
1748247363940884022,-0.068,,,,1.0749453098
1748247363948584312,-0.048,,,,1.0757153388
1748247363956284602,0.012,,,,1.0764853678
1748247363963984892,0.012,,,,1.0772553968
1748247363971685182,0.014,,,,1.0780254258
1748247363979385472,0.043,,,,1.0787954548
1748247363987085762,0.055,,,,1.0795654838
1748247363994786052,0.075,,,,1.0803355128
1748247364002486342,0.123,,,,1.0811055418
1748247364010186632,0.167,,,,1.0818755708
1748247364017886922,0.189,,,,1.0826455998
1748247364025587212,0.194,,,,1.0834156288
1748247364033287502,0.179,,,,1.0841856578
1748247364040987792,0.155,,,,1.0849556868
1748247364048688082,0.16,,,,1.0857257158
1748247364056388372,0.199,,,,1.0864957448
1748247364064088662,0.223,,,,1.0872657738
1748247364071788952,0.233,,,,1.0880358028
1748247364079489242,0.25,,,,1.0888058318
1748247364087189532,0.274,,,,1.0895758608
1748247364094889822,0.298,,,,1.0903458898
1748247364102590112,0.269,,,,1.0911159188
1748247364110290402,0.286,,,,1.0918859478
1748247364117990692,0.706,,,,1.0926559768
1748247364125690982,1.455,,,,1.0934260058
1748247364133391272,1.88,,,,1.0941960348
1748247364141091562,1.588,,,,1.0949660638
1748247364148791852,0.58,,,,1.0957360928
1748247364156492142,-0.206,,,,1.0965061218
1748247364164192432,0.082,,,,1.0972761508
1748247364171892722,0.393,,,,1.0980461798
1748247364179593012,0.116,,,,1.0988162088
1748247364187293302,0.051,,,,1.0995862378
1748247364194993592,0.191,,,,1.1003562668
1748247364202693882,0.131,,,,1.1011262958
1748247364210394172,0.068,,,,1.1018963248
1748247364218094462,0.104,,,,1.1026663538
1748247364225794752,0.092,,,,1.1034363828
1748247364233495042,0.06,,,,1.1042064118
1748247364241195332,0.065,,,,1.1049764408
1748247364248895622,0.058,,,,1.1057464698
1748247364256595912,0.038,,,,1.1065164988
1748247364264296202,0.017,,,,1.1072865278
1748247364271996492,-0.002,,,,1.1080565568
1748247364279696782,-0.012,,,,1.1088265858
1748247364287397072,-0.021,,,,1.1095966148
1748247364295097362,-0.034,,,,1.1103666438
1748247364302797652,-0.038,,,,1.1111366728
1748247364310497942,-0.051,,,,1.1119067018
1748247364318198232,-0.068,,,,1.1126767308
1748247364325898522,-0.077,,,,1.1134467598
1748247364333598812,-0.092,,,,1.1142167888
1748247364341299102,-0.116,,,,1.1149868178
1748247364348999392,-0.143,,,,1.1157568468
1748247364356699682,-0.165,,,,1.1165268758
1748247364364399972,-0.204,,,,1.1172969048
1748247364372100262,-0.262,,,,1.1180669338
1748247364379800552,-0.335,,,,1.1188369628
1748247364387500842,-0.405,,,,1.1196069918
1748247364395201132,-0.459,,,,1.1203770208
1748247364402901422,-0.495,,,,1.1211470498
1748247364410601712,-0.524,,,,1.1219170788
1748247364418302002,-0.544,,,,1.1226871078
1748247364426002292,-0.553,,,,1.1234571368
1748247364433702626,-0.558,,,,1.1242271702
1748247364441402916,-0.556,,,,1.1249971992
1748247364449103206,-0.556,,,,1.1257672282
1748247364456803496,-0.553,,,,1.1265372572
1748247364464503786,-0.548,,,,1.1273072862
1748247364472204076,-0.531,,,,1.1280773152
1748247364479904366,-0.514,,,,1.1288473442
1748247364487604656,-0.514,,,,1.1296173732
1748247364495304946,-0.514,,,,1.1303874022
1748247364503005236,-0.502,,,,1.1311574312
1748247364510705526,-0.488,,,,1.1319274602
1748247364518405816,-0.48,,,,1.1326974892
1748247364526106106,-0.483,,,,1.1334675182
1748247364533806396,-0.476,,,,1.1342375472
1748247364541506686,-0.454,,,,1.1350075762
1748247364549206976,-0.444,,,,1.1357776052
1748247364556907266,-0.449,,,,1.1365476342
1748247364564607556,-0.444,,,,1.1373176632
1748247364572307846,-0.425,,,,1.1380876922
1748247364580008136,-0.417,,,,1.1388577212
1748247364587708426,-0.437,,,,1.1396277502
1748247364595408716,-0.449,,,,1.1403977792
1748247364603109006,-0.429,,,,1.1411678082
1748247364610809296,-0.408,,,,1.1419378372
1748247364618509586,-0.398,,,,1.1427078662
1748247364626209876,-0.388,,,,1.1434778952
1748247364633910166,-0.381,,,,1.1442479242
1748247364641610456,-0.388,,,,1.1450179532
1748247364649310746,-0.391,,,,1.1457879822
1748247364657011036,-0.376,,,,1.1465580112
1748247364664711326,-0.371,,,,1.1473280402
1748247364672411616,-0.364,,,,1.1480980692
1748247364680111906,-0.357,,,,1.1488680982
1748247364687812196,-0.357,,,,1.1496381272
1748247364695512486,-0.337,,,,1.1504081562
1748247364703212776,-0.32,,,,1.1511781852
1748247364710913066,-0.31,,,,1.1519482142
1748247364718613356,-0.289,,,,1.1527182432
1748247364726313646,-0.259,,,,1.1534882722
1748247364734013936,-0.245,,,,1.1542583012
1748247364741714226,-0.252,,,,1.1550283302
1748247364749414516,-0.262,,,,1.1557983592
1748247364757114806,-0.272,,,,1.1565683882
1748247364764815096,-0.306,,,,1.1573384172
1748247364772515386,-0.325,,,,1.1581084462
1748247364780215676,-0.313,,,,1.1588784752
1748247364787915966,-0.306,,,,1.1596485042
1748247364795616256,-0.293,,,,1.1604185332
1748247364803316546,-0.281,,,,1.1611885622
1748247364811016836,-0.276,,,,1.1619585912
1748247364818717126,-0.267,,,,1.1627286202
1748247364826417416,-0.281,,,,1.1634986492
1748247364834117706,-0.293,,,,1.1642686782
1748247364841817996,-0.002,,,,1.1650387072
1748247364849518286,0.6940000000000001,,,,1.1658087362
1748247364857218576,1.231,,,,1.1665787652
1748247364864918866,1.117,,,,1.1673487942
1748247364872619156,0.247,,,,1.1681188232
1748247364880319446,-0.719,,,,1.1688888522
1748247364888019736,-0.653,,,,1.1696588812
1748247364895720026,-0.16,,,,1.1704289102
1748247364903420316,-0.291,,,,1.1711989392
1748247364911120606,-0.454,,,,1.1719689682
1748247364918820896,-0.313,,,,1.1727389972
1748247364926521186,-0.291,,,,1.1735090262
1748247364934221476,-0.335,,,,1.1742790552
1748247364941921766,-0.279,,,,1.1750490842
1748247364949622056,-0.257,,,,1.1758191132
1748247364957322346,-0.274,,,,1.1765891422
1748247364965022636,-0.242,,,,1.1773591712
1748247364972722926,-0.208,,,,1.1781292002
1748247364980423216,-0.211,,,,1.1788992292
1748247364988123506,-0.206,,,,1.1796692582
1748247364995823840,-0.184,79.0,763.0,,1.1804392916
1748247365003523712,-0.165,,768.0,,1.1812092788
1748247365011223584,-0.14,,,,1.181979266
1748247365018923456,-0.109,,,,1.1827492532
1748247365026623328,-0.094,,,,1.1835192404
1748247365034323200,-0.085,,,,1.1842892276
1748247365042023072,-0.06,,,,1.1850592148
1748247365049722944,-0.038,,,,1.185829202
1748247365057422816,-0.024,,,,1.1865991892
1748247365065122688,-0.029,,,,1.1873691764
1748247365072822560,-0.038,,,,1.1881391636
1748247365080522432,-0.029,,,,1.1889091508
1748247365088222304,-0.043,,,,1.189679138
1748247365095922176,-0.104,,,,1.1904491252
1748247365103622048,-0.17,,,,1.1912191124
1748247365111321920,-0.228,,,,1.1919890996
1748247365119021792,-0.284,,,,1.1927590868
1748247365126721664,-0.32,,,,1.193529074
1748247365134421536,-0.332,,,,1.1942990612
1748247365142121408,-0.335,,,,1.1950690484
1748247365149821280,-0.34,,,,1.1958390356
1748247365157521152,-0.347,,,,1.1966090228
1748247365165221024,-0.344,,,,1.19737901
1748247365172920896,-0.337,,,,1.1981489972
1748247365180620768,-0.33,,,,1.1989189844
1748247365188320640,-0.318,,,,1.1996889716
1748247365196020512,-0.301,,,,1.2004589588
1748247365203720384,-0.296,,,,1.201228946
1748247365211420256,-0.306,,,,1.2019989332
1748247365219120128,-0.31,,,,1.2027689204
1748247365226820000,-0.315,,,,1.2035389076
1748247365234519872,-0.33,,,,1.2043088948
1748247365242219744,-0.335,,,,1.205078882
1748247365249919616,-0.33,,,,1.2058488692
1748247365257619488,-0.337,,,,1.2066188564
1748247365265319360,-0.342,,,,1.2073888436
1748247365273019232,-0.335,,,,1.2081588308
1748247365280719104,-0.34,,,,1.208928818
1748247365288418976,-0.349,,,,1.2096988052
1748247365296118848,-0.344,,,,1.2104687924
1748247365303818720,-0.361,,,,1.2112387796
1748247365311518592,-0.374,,,,1.2120087668
1748247365319218464,-0.349,,,,1.212778754
1748247365326918336,-0.332,,,,1.2135487412
1748247365334618208,-0.342,,,,1.2143187284
1748247365342318080,-0.34,,,,1.2150887156
1748247365350017952,-0.323,,,,1.2158587028
1748247365357717824,-0.325,,,,1.21662869
1748247365365417696,-0.337,,,,1.2173986772
1748247365373117568,-0.313,,,,1.2181686644
1748247365380817440,-0.291,,,,1.2189386516
1748247365388517312,-0.296,,,,1.2197086388
1748247365396217184,-0.281,,,,1.220478626
1748247365403917056,-0.25,,,,1.2212486132
1748247365411616928,-0.213,,,,1.2220186004
1748247365419316800,-0.191,,,,1.2227885876
1748247365427016672,-0.213,,,,1.2235585748
1748247365434716544,-0.255,,,,1.224328562
1748247365442416416,-0.274,,,,1.2250985492
1748247365450116288,-0.274,,,,1.2258685364
1748247365457816160,-0.272,,,,1.2266385236
1748247365465516032,-0.262,,,,1.2274085108
1748247365473215904,-0.255,,,,1.228178498
1748247365480915776,-0.247,,,,1.2289484852
1748247365488615648,-0.24,,,,1.2297184724
1748247365496315520,-0.235,,,,1.2304884596
1748247365504015392,-0.242,,,,1.2312584468
1748247365511715264,-0.235,,,,1.232028434
1748247365519415136,0.072,,,,1.2327984212
1748247365527115008,0.745,,,,1.2335684084
1748247365534814880,1.212,,,,1.2343383956
1748247365542514752,1.0,,,,1.2351083828
1748247365550214624,0.085,,,,1.23587837
1748247365557914540,-0.755,,,,1.2366483616
1748247365565614830,-0.553,,,,1.2374183906
1748247365573315120,-0.097,,,,1.2381884196
1748247365581015410,-0.267,,,,1.2389584486
1748247365588715700,-0.388,,,,1.2397284776
1748247365596415990,-0.24,,,,1.2404985066
1748247365604116280,-0.247,,,,1.2412685356
1748247365611816570,-0.289,,,,1.2420385646
1748247365619516860,-0.228,,,,1.2428085936
1748247365627217150,-0.213,,,,1.2435786226
1748247365634917440,-0.23,,,,1.2443486516
1748247365642617730,-0.204,,,,1.2451186806
1748247365650318020,-0.174,,,,1.2458887096
1748247365658018310,-0.17,,,,1.2466587386
1748247365665718600,-0.157,,,,1.2474287676
1748247365673418890,-0.136,,,,1.2481987966
1748247365681119180,-0.119,,,,1.2489688256
1748247365688819470,-0.104,,,,1.2497388546
1748247365696519760,-0.089,,,,1.2505088836
1748247365704220050,-0.077,,,,1.2512789126
1748247365711920340,-0.055,,,,1.2520489416
1748247365719620630,-0.029,,,,1.2528189706
1748247365727320920,-0.014,,,,1.2535889996
1748247365735021210,0.002,,,,1.2543590286
1748247365742721500,0.019,,,,1.2551290576
1748247365750421790,0.017,,,,1.2558990866
1748247365758122080,-0.004,,,,1.2566691156
1748247365765822370,-0.036,,,,1.2574391446
1748247365773522660,-0.092,,,,1.2582091736
1748247365781222950,-0.177,,,,1.2589792026
1748247365788923240,-0.267,,,,1.2597492316
1748247365796623530,-0.32,,,,1.2605192606
1748247365804323820,-0.349,,,,1.2612892896
1748247365812024110,-0.371,,,,1.2620593186
1748247365819724400,-0.383,,,,1.2628293476
1748247365827424690,-0.388,,,,1.2635993766
1748247365835124980,-0.393,,,,1.2643694056
1748247365842825270,-0.386,,,,1.2651394346
1748247365850525560,-0.383,,,,1.2659094636
1748247365858225850,-0.391,,,,1.2666794926
1748247365865926140,-0.388,,,,1.2674495216
1748247365873626430,-0.381,,,,1.2682195506
1748247365881326720,-0.378,,,,1.2689895796
1748247365889027010,-0.381,,,,1.2697596086
1748247365896727300,-0.371,,,,1.2705296376
1748247365904427590,-0.366,,,,1.2712996666
1748247365912127880,-0.374,,,,1.2720696956
1748247365919828170,-0.376,,,,1.2728397246
1748247365927528460,-0.359,,,,1.2736097536
1748247365935228750,-0.352,,,,1.2743797826
1748247365942929040,-0.359,,,,1.2751498116
1748247365950629330,-0.352,,,,1.2759198406
1748247365958329620,-0.332,,,,1.2766898696
1748247365966029910,-0.325,,,,1.2774598986
1748247365973730200,-0.327,,,,1.2782299276
1748247365981430490,-0.33,,,,1.2789999566
1748247365989130780,-0.342,,,,1.2797699856
1748247365996831070,-0.361,,,,1.2805400146
1748247366004531360,-0.369,,,,1.2813100436
1748247366012231650,-0.357,,,,1.2820800726
1748247366019931940,-0.344,,,,1.2828501016
1748247366027632230,-0.352,,,,1.2836201306
1748247366035332520,-0.354,,,,1.2843901596
1748247366043032810,-0.344,,,,1.2851601886
1748247366050733100,-0.34,,,,1.2859302176
1748247366058433390,-0.337,,,,1.2867002466
1748247366066133680,-0.332,,,,1.2874702756
1748247366073833970,-0.315,,,,1.2882403046
1748247366081534260,-0.286,,,,1.2890103336
1748247366089234550,-0.272,,,,1.2897803626
1748247366096934840,-0.281,,,,1.2905503916
1748247366104635130,-0.313,,,,1.2913204206
1748247366112335420,-0.361,,,,1.2920904496
1748247366120035754,-0.381,79.0,749.0,,1.292860483
1748247366127735835,-0.359,,,,1.2936304911
1748247366135435916,-0.354,,,,1.2944004992
1748247366143135997,-0.364,,,,1.2951705073
1748247366150836078,-0.354,,,,1.2959405154
1748247366158536159,-0.342,,,,1.2967105235
1748247366166236240,-0.337,,,,1.2974805316
1748247366173936321,-0.347,,,,1.2982505397
1748247366181636402,-0.347,,,,1.2990205478
1748247366189336483,-0.06,,,,1.2997905559
1748247366197036564,0.602,,,,1.300560564
1748247366204736645,1.066,,,,1.3013305721
1748247366212436726,0.85,,,,1.3021005802
1748247366220136807,-0.014,,,,1.3028705883
1748247366227836888,-0.782,,,,1.3036405964
1748247366235536969,-0.5680000000000001,,,,1.3044106045
1748247366243237050,-0.114,,,,1.3051806126
1748247366250937131,-0.255,,,,1.3059506207
1748247366258637212,-0.359,,,,1.3067206288
1748247366266337293,-0.201,,,,1.3074906369
1748247366274037374,-0.191,,,,1.308260645
1748247366281737455,-0.242,,,,1.3090306531
1748247366289437536,-0.187,,,,1.3098006612
1748247366297137617,-0.153,,,,1.3105706693
1748247366304837698,-0.157,,,,1.3113406774
1748247366312537779,-0.128,,,,1.3121106855
1748247366320237860,-0.106,,,,1.3128806936
1748247366327937941,-0.106,,,,1.3136507017
1748247366335638022,-0.087,,,,1.3144207098
1748247366343338103,-0.065,,,,1.3151907179
1748247366351038184,-0.051,,,,1.315960726
1748247366358738265,-0.026,,,,1.3167307341
1748247366366438346,-0.004,,,,1.3175007422
1748247366374138427,0.021,,,,1.3182707503
1748247366381838508,0.043,,,,1.3190407584
1748247366389538589,0.051,,,,1.3198107665
1748247366397238670,0.068,,,,1.3205807746
1748247366404938751,0.094,,,,1.3213507827
1748247366412638832,0.106,,,,1.3221207908
1748247366420338913,0.111,,,,1.3228907989
1748247366428038994,0.109,,,,1.323660807
1748247366435739075,0.068,,,,1.3244308151
1748247366443439156,-0.012,,,,1.3252008232
1748247366451139237,-0.092,,,,1.3259708313
1748247366458839318,-0.17,,,,1.3267408394
1748247366466539399,-0.233,,,,1.3275108475
1748247366474239480,-0.255,,,,1.3282808556
1748247366481939561,-0.262,,,,1.3290508637
1748247366489639642,-0.279,,,,1.3298208718
1748247366497339723,-0.279,,,,1.3305908799
1748247366505039804,-0.264,,,,1.331360888
1748247366512739885,-0.257,,,,1.3321308961
1748247366520439966,-0.25,,,,1.3329009042
1748247366528140047,-0.245,,,,1.3336709123
1748247366535840128,-0.235,,,,1.3344409204
1748247366543540209,-0.23,,,,1.3352109285
1748247366551240290,-0.223,,,,1.3359809366
1748247366558940371,-0.213,,,,1.3367509447
1748247366566640452,-0.208,,,,1.3375209528
1748247366574340533,-0.201,,,,1.3382909609
1748247366582040614,-0.187,,,,1.339060969
1748247366589740695,-0.179,,,,1.3398309771
1748247366597440776,-0.177,,,,1.3406009852
1748247366605140857,-0.172,,,,1.3413709933
1748247366612840938,-0.167,,,,1.3421410014
1748247366620541019,-0.162,,,,1.3429110095
1748247366628241100,-0.162,,,,1.3436810176
1748247366635941181,-0.157,,,,1.3444510257
1748247366643641262,-0.155,,,,1.3452210338
1748247366651341343,-0.153,,,,1.3459910419
1748247366659041424,-0.148,,,,1.34676105
1748247366666741505,-0.153,,,,1.3475310581
1748247366674441586,-0.162,,,,1.3483010662
1748247366682141710,-0.157,,,,1.3490710786
1748247366689841791,-0.15,,,,1.3498410867
1748247366697541872,-0.15,,,,1.3506110948
1748247366705241953,-0.15,,,,1.3513811029
1748247366712942034,-0.143,,,,1.352151111
1748247366720642115,-0.14,,,,1.3529211191
1748247366728342196,-0.138,,,,1.3536911272
1748247366736042277,-0.126,,,,1.3544611353
1748247366743742358,-0.102,,,,1.3552311434
1748247366751442439,-0.07,,,,1.3560011515
1748247366759142520,-0.063,,,,1.3567711596
1748247366766842601,-0.097,,,,1.3575411677
1748247366774542682,-0.145,,,,1.3583111758
1748247366782242763,-0.16,,,,1.3590811839
1748247366789942844,-0.153,,,,1.359851192
1748247366797642925,-0.153,,,,1.3606212001
1748247366805343006,-0.145,,,,1.3613912082
1748247366813043087,-0.133,,,,1.3621612163
1748247366820743168,-0.126,,,,1.3629312244
1748247366828443249,-0.123,,,,1.3637012325
1748247366836143330,-0.128,,,,1.3644712406
1748247366843843411,-0.162,,,,1.3652412487
1748247366851543492,-0.009,,,,1.3660112568
1748247366859243573,0.58,,,,1.3667812649
1748247366866943654,1.183,,,,1.367551273
1748247366874643735,1.168,,,,1.3683212811
1748247366882343816,0.393,,,,1.3690912892
1748247366890043897,-0.539,,,,1.3698612973
1748247366897743978,-0.5730000000000001,,,,1.3706313054
1748247366905444059,-0.068,,,,1.3714013135
1748247366913144140,-0.102,,,,1.3721713216
1748247366920844221,-0.293,,,,1.3729413297
1748247366928544302,-0.172,,,,1.3737113378
1748247366936244383,-0.121,,,,1.3744813459
1748247366943944464,-0.187,,,,1.375251354
1748247366951644545,-0.16,,,,1.3760213621
1748247366959344626,-0.121,,,,1.3767913702
1748247366967044707,-0.133,,,,1.3775613783
1748247366974744788,-0.123,,,,1.3783313864
1748247366982444869,-0.099,,,,1.3791013945
1748247366990144950,-0.092,,,,1.3798714026
1748247366997845031,-0.08,,,,1.3806414107
1748247367005545112,-0.06,,,,1.3814114188
1748247367013245193,-0.046,,,,1.3821814269
1748247367020945274,-0.031,,,,1.382951435
1748247367028645355,-0.007,,,,1.3837214431
1748247367036345436,0.014,,,,1.3844914512
1748247367044045517,0.031,,,,1.3852614593
1748247367051745598,0.053,,,,1.3860314674
1748247367059445679,0.08,,,,1.3868014755
1748247367067145760,0.089,,,,1.3875714836
1748247367074845841,0.094,,,,1.3883414917
1748247367082545922,0.104,,,,1.3891114998
1748247367090246003,0.099,,,,1.3898815079
1748247367097946084,0.07,,,,1.390651516
1748247367105646165,0.009,,,,1.3914215241
1748247367113346246,-0.072,,,,1.3921915322
1748247367121046327,-0.16,,,,1.3929615403
1748247367128746408,-0.223,,,,1.3937315484
1748247367136446489,-0.257,,,,1.3945015565
1748247367144146570,-0.274,,,,1.3952715646
1748247367151846651,-0.281,,,,1.3960415727
1748247367159546732,-0.284,,,,1.3968115808
1748247367167246813,-0.286,,,,1.3975815889
1748247367174946894,-0.276,,,,1.398351597
1748247367182646975,-0.267,,,,1.3991216051
1748247367190347056,-0.259,,,,1.3998916132
1748247367198047137,-0.245,,,,1.4006616213
1748247367205747218,-0.242,,,,1.4014316294
1748247367213447299,-0.24,,,,1.4022016375
1748247367221147380,-0.223,,,,1.4029716456
1748247367228847461,-0.213,,,,1.4037416537
1748247367236547542,-0.213,,,,1.4045116618
1748247367244247664,-0.206,79.0,726.0,,1.405281674
1748247367251947954,-0.194,,677.0,,1.406051703
1748247367259648244,-0.187,,,,1.406821732
1748247367267348534,-0.184,,,,1.407591761
1748247367275048824,-0.179,,,,1.40836179
1748247367282749114,-0.174,,,,1.409131819
1748247367290449404,-0.172,,,,1.409901848
1748247367298149694,-0.167,,,,1.410671877
1748247367305849984,-0.165,,,,1.411441906
1748247367313550274,-0.165,,,,1.412211935
1748247367321250564,-0.165,,,,1.412981964
1748247367328950854,-0.165,,,,1.413751993
1748247367336651144,-0.165,,,,1.414522022
1748247367344351434,-0.165,,,,1.415292051
1748247367352051724,-0.16,,,,1.41606208
1748247367359752014,-0.155,,,,1.416832109
1748247367367452304,-0.157,,,,1.417602138
1748247367375152594,-0.157,,,,1.418372167
1748247367382852884,-0.15,,,,1.419142196
1748247367390553174,-0.148,,,,1.419912225
1748247367398253464,-0.148,,,,1.420682254
1748247367405953754,-0.15,,,,1.421452283
1748247367413654044,-0.14,,,,1.422222312
1748247367421354334,-0.116,,,,1.422992341
1748247367429054624,-0.092,,,,1.42376237
1748247367436754914,-0.087,,,,1.424532399
1748247367444455204,-0.104,,,,1.425302428
1748247367452155494,-0.14,,,,1.426072457
1748247367459855784,-0.177,,,,1.426842486
1748247367467556074,-0.179,,,,1.427612515
1748247367475256364,-0.17,,,,1.428382544
1748247367482956654,-0.167,,,,1.429152573
1748247367490656944,-0.162,,,,1.429922602
1748247367498357234,-0.157,,,,1.430692631
1748247367506057524,-0.15,,,,1.43146266
1748247367513757814,-0.145,,,,1.432232689
1748247367521458104,-0.187,,,,1.433002718
1748247367529158394,-0.167,,,,1.433772747
1748247367536858684,0.264,,,,1.434542776
1748247367544558974,1.0,,,,1.435312805
1748247367552259264,1.343,,,,1.436082834
1748247367559959554,0.896,,,,1.436852863
1748247367567659844,-0.119,,,,1.437622892
1748247367575360134,-0.6920000000000001,,,,1.438392921
1748247367583060424,-0.303,,,,1.43916295
1748247367590760714,-0.053,,,,1.439932979
1748247367598461004,-0.293,,,,1.440703008
1748247367606161294,-0.291,,,,1.441473037
1748247367613861584,-0.157,,,,1.442243066
1748247367621561874,-0.206,,,,1.443013095
1748247367629262164,-0.228,,,,1.443783124
1748247367636962454,-0.167,,,,1.444553153
1748247367644662744,-0.16,,,,1.445323182
1748247367652363034,-0.167,,,,1.446093211
1748247367660063324,-0.14,,,,1.44686324
1748247367667763614,-0.126,,,,1.447633269
1748247367675463904,-0.121,,,,1.448403298
1748247367683164194,-0.104,,,,1.449173327
1748247367690864484,-0.087,,,,1.449943356
1748247367698564774,-0.07,,,,1.450713385
1748247367706265064,-0.053,,,,1.451483414
1748247367713965354,-0.029,,,,1.452253443
1748247367721665644,-0.009,,,,1.453023472
1748247367729365934,0.007,,,,1.453793501
1748247367737066224,0.029,,,,1.45456353
1748247367744766514,0.046,,,,1.455333559
1748247367752466804,0.058,,,,1.456103588
1748247367760167094,0.07,,,,1.456873617
1748247367767867384,0.072,,,,1.457643646
1748247367775567674,0.058,,,,1.458413675
1748247367783267964,0.017,,,,1.459183704
1748247367790968254,-0.053,,,,1.459953733
1748247367798668544,-0.133,,,,1.460723762
1748247367806368878,-0.201,80.0,670.0,,1.4614937954
1748247367814069168,-0.245,,,,1.4622638244
1748247367821769458,-0.272,,,,1.4630338534
1748247367829469748,-0.289,,,,1.4638038824
1748247367837170038,-0.291,,,,1.4645739114
1748247367844870328,-0.286,,,,1.4653439404
1748247367852570618,-0.279,,,,1.4661139694
1748247367860270908,-0.272,,,,1.4668839984
1748247367867971198,-0.262,,,,1.4676540274
1748247367875671488,-0.252,,,,1.4684240564
1748247367883371778,-0.245,,,,1.4691940854
1748247367891072068,-0.235,,,,1.4699641144
1748247367898772358,-0.223,,,,1.4707341434
1748247367906472648,-0.213,,,,1.4715041724
1748247367914172938,-0.208,,,,1.4722742014
1748247367921873228,-0.201,,,,1.4730442304
1748247367929573518,-0.191,,,,1.4738142594
1748247367937273808,-0.179,,,,1.4745842884
1748247367944974098,-0.177,,,,1.4753543174
1748247367952674388,-0.174,,,,1.4761243464
1748247367960374678,-0.165,,,,1.4768943754
1748247367968074968,-0.165,,,,1.4776644044
1748247367975775258,-0.167,,,,1.4784344334
1748247367983475548,-0.165,,,,1.4792044624
1748247367991175838,-0.16,,,,1.4799744914
1748247367998876128,-0.162,,,,1.4807445204
1748247368006576418,-0.165,,,,1.4815145494
1748247368014276708,-0.16,,,,1.4822845784
1748247368021976998,-0.16,,,,1.4830546074
1748247368029677288,-0.162,,,,1.4838246364
1748247368037377578,-0.16,,,,1.4845946654
1748247368045077868,-0.157,,,,1.4853646944
1748247368052778158,-0.162,,,,1.4861347234
1748247368060478448,-0.165,,,,1.4869047524
1748247368068178738,-0.165,,,,1.4876747814
1748247368075879028,-0.157,,,,1.4884448104
1748247368083579318,-0.157,,,,1.4892148394
1748247368091279608,-0.162,,,,1.4899848684
1748247368098979898,-0.16,,,,1.4907548974
1748247368106680188,-0.157,,,,1.4915249264
1748247368114380478,-0.148,,,,1.4922949554
1748247368122080768,-0.14,,,,1.4930649844
1748247368129781058,-0.145,,,,1.4938350134
1748247368137481348,-0.148,,,,1.4946050424
1748247368145181638,-0.138,,,,1.4953750714
1748247368152881928,-0.111,,,,1.4961451004
1748247368160582218,-0.082,,,,1.4969151294
1748247368168282508,-0.075,,,,1.4976851584
1748247368175982798,-0.089,,,,1.4984551874
1748247368183683088,-0.123,,,,1.4992252164
1748247368191383378,-0.165,,,,1.4999952454
1748247368199083668,-0.17,,,,1.5007652744
1748247368206783958,-0.157,,,,1.5015353034
1748247368214484248,-0.153,,,,1.5023053324
1748247368222184538,-0.148,,,,1.5030753614
1748247368229884828,-0.145,,,,1.5038453904
1748247368237585118,-0.138,,,,1.5046154194
1748247368245285408,-0.136,,,,1.5053854484
1748247368252985698,-0.174,,,,1.5061554774
1748247368260685988,-0.196,,,,1.5069255064
1748247368268386278,0.123,,,,1.5076955354
1748247368276086568,0.855,,,,1.5084655644
1748247368283786858,1.362,,,,1.5092355934
1748247368291487148,1.139,,,,1.5100056224
1748247368299187438,0.184,,,,1.5107756514
1748247368306887728,-0.651,,,,1.5115456804
1748247368314588018,-0.434,,,,1.5123157094
1748247368322288308,-0.026,,,,1.5130857384
1748247368329988598,-0.228,,,,1.5138557674
1748247368337688888,-0.327,,,,1.5146257964
1748247368345389178,-0.167,,,,1.5153958254
1748247368353089468,-0.174,,,,1.5161658544
1748247368360789758,-0.223,,,,1.5169358834
1748247368368490092,-0.172,,,,1.5177059168
1748247368376190312,-0.15,,,,1.5184759388
1748247368383890532,-0.165,,,,1.5192459608
1748247368391590752,-0.145,,,,1.5200159828
1748247368399290972,-0.123,,,,1.5207860048
1748247368406991192,-0.116,,,,1.5215560268
1748247368414691412,-0.102,,,,1.5223260488
1748247368422391632,-0.087,,,,1.5230960708
1748247368430091852,-0.075,,,,1.5238660928
1748247368437792072,-0.053,,,,1.5246361148
1748247368445492292,-0.034,,,,1.5254061368
1748247368453192512,-0.017,,,,1.5261761588
1748247368460892732,0.004,,,,1.5269461808
1748247368468592952,0.021,,,,1.5277162028
1748247368476293172,0.036,,,,1.5284862248
1748247368483993392,0.048,,,,1.5292562468
1748247368491693612,0.058,,,,1.5300262688
1748247368499393832,0.063,,,,1.5307962908
1748247368507094052,0.055,,,,1.5315663128
1748247368514794272,0.031,,,,1.5323363348
1748247368522494492,-0.024,,,,1.5331063568
1748247368530194712,-0.102,,,,1.5338763788
1748247368537894932,-0.177,,,,1.5346464008
1748247368545595152,-0.23,,,,1.5354164228
1748247368553295372,-0.264,,,,1.5361864448
1748247368560995592,-0.284,,,,1.5369564668
1748247368568695812,-0.291,,,,1.5377264888
1748247368576396032,-0.289,,,,1.5384965108
1748247368584096252,-0.284,,,,1.5392665328
1748247368591796472,-0.276,,,,1.5400365548
1748247368599496692,-0.272,,,,1.5408065768
1748247368607196912,-0.267,,,,1.5415765988
1748247368614897132,-0.252,,,,1.5423466208
1748247368622597352,-0.24,,,,1.5431166428
1748247368630297572,-0.235,,,,1.5438866648
1748247368637997792,-0.233,,,,1.5446566868
1748247368645698012,-0.223,,,,1.5454267088
1748247368653398232,-0.208,,,,1.5461967308
1748247368661098452,-0.199,,,,1.5469667528
1748247368668798672,-0.196,,,,1.5477367748
1748247368676498892,-0.194,,,,1.5485067968
1748247368684199112,-0.191,,,,1.5492768188
1748247368691899332,-0.187,,,,1.5500468408
1748247368699599552,-0.174,,,,1.5508168628
1748247368707299772,-0.17,,,,1.5515868848
1748247368714999992,-0.174,,,,1.5523569068
1748247368722700212,-0.179,,,,1.5531269288
1748247368730400432,-0.172,,,,1.5538969508
1748247368738100652,-0.172,,,,1.5546669728
1748247368745800872,-0.184,,,,1.5554369948
1748247368753501092,-0.182,,,,1.5562070168
1748247368761201312,-0.17,,,,1.5569770388
1748247368768901532,-0.174,,,,1.5577470608
1748247368776601752,-0.177,,,,1.5585170828
1748247368784301972,-0.179,,,,1.5592871048
1748247368792002192,-0.179,,,,1.5600571268
1748247368799702412,-0.172,,,,1.5608271488
1748247368807402632,-0.172,,,,1.5615971708
1748247368815102852,-0.177,,,,1.5623671928
1748247368822803072,-0.179,,,,1.5631372148
1748247368830503292,-0.179,,,,1.5639072368
1748247368838203512,-0.177,,,,1.5646772588
1748247368845903732,-0.172,,,,1.5654472808
1748247368853603952,-0.167,,,,1.5662173028
1748247368861304172,-0.172,,,,1.5669873248
1748247368869004392,-0.172,,,,1.5677573468
1748247368876704612,-0.162,,,,1.5685273688
1748247368884404832,-0.167,,,,1.5692973908
1748247368892105052,-0.172,,,,1.5700674128
1748247368899805272,-0.155,,,,1.5708374348
1748247368907505492,-0.148,,,,1.5716074568
1748247368915205712,-0.157,,,,1.5723774788
1748247368922905932,-0.16,,,,1.5731475008
1748247368930606224,-0.155,81.0,664.0,,1.57391753
1748247368938306166,-0.14,,,,1.5746875242
1748247368946006108,-0.099,,,,1.5754575184
1748247368953706050,-0.077,,,,1.5762275126
1748247368961405992,-0.104,,,,1.5769975068
1748247368969105934,-0.123,,,,1.577767501
1748247368976805876,-0.143,,,,1.5785374952
1748247368984505818,-0.184,,,,1.5793074894
1748247368992205760,-0.191,,,,1.5800774836
1748247368999905702,-0.167,,,,1.5808474778
1748247369007605644,-0.162,,,,1.581617472
1748247369015305586,-0.162,,,,1.5823874662
1748247369023005528,-0.155,,,,1.5831574604
1748247369030705470,-0.145,,,,1.5839274546
1748247369038405412,-0.153,,,,1.5846974488
1748247369046105354,-0.206,,,,1.585467443
1748247369053805296,-0.133,,,,1.5862374372
1748247369061505238,0.398,,,,1.5870074314
1748247369069205180,1.132,,,,1.5877774256
1748247369076905122,1.377,,,,1.5885474198
1748247369084605064,0.8130000000000001,,,,1.589317414
1748247369092305006,-0.247,,,,1.5900874082
1748247369100004948,-0.6970000000000001,,,,1.5908574024
1748247369107704890,-0.238,,,,1.5916273966
1748247369115404832,-0.082,,,,1.5923973908
1748247369123104774,-0.34,,,,1.593167385
1748247369130804716,-0.279,,,,1.5939373792
1748247369138504658,-0.16,,,,1.5947073734
1748247369146204600,-0.228,,,,1.5954773676
1748247369153904542,-0.235,,,,1.5962473618
1748247369161604484,-0.167,,,,1.597017356
1748247369169304426,-0.162,,,,1.5977873502
1748247369177004368,-0.182,,,,1.5985573444
1748247369184704310,-0.157,,,,1.5993273386
1748247369192404252,-0.126,,,,1.6000973328
1748247369200104194,-0.123,,,,1.600867327
1748247369207804136,-0.116,,,,1.6016373212
1748247369215504078,-0.087,,,,1.6024073154
1748247369223204020,-0.068,,,,1.6031773096
1748247369230903962,-0.055,,,,1.6039473038
1748247369238603904,-0.036,,,,1.604717298
1748247369246303846,-0.019,,,,1.6054872922
1748247369254003788,0.002,,,,1.6062572864
1748247369261703730,0.024,,,,1.6070272806
1748247369269403672,0.041,,,,1.6077972748
1748247369277103614,0.051,,,,1.608567269
1748247369284803556,0.051,,,,1.6093372632
1748247369292503498,0.055,,,,1.6101072574
1748247369300203440,0.058,,,,1.6108772516
1748247369307903382,0.017,,,,1.6116472458
1748247369315603324,-0.053,,,,1.61241724
1748247369323303266,-0.136,,,,1.6131872342
1748247369331003208,-0.213,,,,1.6139572284
1748247369338703150,-0.262,,,,1.6147272226
1748247369346403092,-0.279,,,,1.6154972168
1748247369354103034,-0.291,,,,1.616267211
1748247369361802976,-0.308,,,,1.6170372052
1748247369369502918,-0.313,,,,1.6178071994
1748247369377202860,-0.296,,,,1.6185771936
1748247369384902802,-0.284,,,,1.6193471878
1748247369392602744,-0.276,,,,1.620117182
1748247369400302686,-0.272,,,,1.6208871762
1748247369408002628,-0.264,,,,1.6216571704
1748247369415702570,-0.252,,,,1.6224271646
1748247369423402512,-0.242,,,,1.6231971588
1748247369431102454,-0.24,,,,1.623967153
1748247369438802396,-0.228,,,,1.6247371472
1748247369446502338,-0.221,,,,1.6255071414
1748247369454202280,-0.213,,,,1.6262771356
1748247369461902222,-0.204,,,,1.6270471298
1748247369469602164,-0.196,,,,1.627817124
1748247369477302106,-0.189,,,,1.6285871182
1748247369485002048,-0.177,,,,1.6293571124
1748247369492702006,-0.174,,,,1.6301271082
1748247369500402296,-0.182,,,,1.6308971372
1748247369508102586,-0.182,,,,1.6316671662
1748247369515802876,-0.167,,,,1.6324371952
1748247369523503166,-0.17,,,,1.6332072242
1748247369531203456,-0.179,,,,1.6339772532
1748247369538903746,-0.174,,,,1.6347472822
1748247369546604036,-0.167,,,,1.6355173112
1748247369554304326,-0.167,,,,1.6362873402
1748247369562004616,-0.167,,,,1.6370573692
1748247369569704906,-0.17,,,,1.6378273982
1748247369577405196,-0.17,,,,1.6385974272
1748247369585105486,-0.167,,,,1.6393674562
1748247369592805776,-0.167,,,,1.6401374852
1748247369600506066,-0.17,,,,1.6409075142
1748247369608206356,-0.167,,,,1.6416775432
1748247369615906646,-0.167,,,,1.6424475722
1748247369623606936,-0.165,,,,1.6432176012
1748247369631307226,-0.16,,,,1.6439876302
1748247369639007516,-0.16,,,,1.6447576592
1748247369646707806,-0.157,,,,1.6455276882
1748247369654408096,-0.148,,,,1.6462977172
1748247369662108386,-0.143,,,,1.6470677462
1748247369669808676,-0.15,,,,1.6478377752
1748247369677508966,-0.15,,,,1.6486078042
1748247369685209256,-0.136,,,,1.6493778332
1748247369692909546,-0.106,,,,1.6501478622
1748247369700609836,-0.077,,,,1.6509178912
1748247369708310126,-0.082,,,,1.6516879202
1748247369716010416,-0.106,,,,1.6524579492
1748247369723710706,-0.136,,,,1.6532279782
1748247369731410996,-0.167,,,,1.6539980072
1748247369739111286,-0.174,,,,1.6547680362
1748247369746811576,-0.167,,,,1.6555380652
1748247369754511866,-0.16,,,,1.6563080942
1748247369762212156,-0.157,,,,1.6570781232
1748247369769912446,-0.153,,,,1.6578481522
1748247369777612736,-0.145,,,,1.6586181812
1748247369785313026,-0.143,,,,1.6593882102
1748247369793013316,-0.177,,,,1.6601582392
1748247369800713606,-0.187,,,,1.6609282682
1748247369808413896,0.165,,,,1.6616982972
1748247369816114186,0.893,,,,1.6624683262
1748247369823814476,1.309,,,,1.6632383552
1748247369831514766,0.949,,,,1.6640083842
1748247369839215056,-0.014,,,,1.6647784132
1748247369846915346,-0.714,,,,1.6655484422
1748247369854615636,-0.417,,,,1.6663184712
1748247369862315926,-0.029,,,,1.6670885002
1748247369870016216,-0.218,,,,1.6678585292
1748247369877716506,-0.293,,,,1.6686285582
1748247369885416796,-0.148,,,,1.6693985872
1748247369893117086,-0.165,,,,1.6701686162
1748247369900817376,-0.208,,,,1.6709386452
1748247369908517666,-0.157,,,,1.6717086742
1748247369916217956,-0.136,,,,1.6724787032
1748247369923918246,-0.148,,,,1.6732487322
1748247369931618536,-0.126,,,,1.6740187612
1748247369939318826,-0.106,,,,1.6747887902
1748247369947019116,-0.102,,,,1.6755588192
1748247369954719406,-0.087,,,,1.6763288482
1748247369962419696,-0.068,,,,1.6770988772
1748247369970119986,-0.053,,,,1.6778689062
1748247369977820276,-0.036,,,,1.6786389352
1748247369985520566,-0.014,,,,1.6794089642
1748247369993220856,0.009,,,,1.6801789932
1748247370000921146,0.029,,,,1.6809490222
1748247370008621436,0.051,,,,1.6817190512
1748247370016321726,0.072,,,,1.6824890802
1748247370024022016,0.085,,,,1.6832591092
1748247370031722306,0.097,,,,1.6840291382
1748247370039422596,0.104,,,,1.6847991672
1748247370047122886,0.097,,,,1.6855691962
1748247370054823220,0.065,83.0,682.0,,1.6863392296
1748247370062523510,-0.002,,733.0,,1.6871092586
1748247370070223800,-0.094,,,,1.6878792876
1748247370077924090,-0.174,,,,1.6886493166
1748247370085624380,-0.233,,,,1.6894193456
1748247370093324670,-0.272,,,,1.6901893746
1748247370101024960,-0.291,,,,1.6909594036
1748247370108725250,-0.301,,,,1.6917294326
1748247370116425540,-0.298,,,,1.6924994616
1748247370124125830,-0.291,,,,1.6932694906
1748247370131826120,-0.279,,,,1.6940395196
1748247370139526410,-0.269,,,,1.6948095486
1748247370147226700,-0.264,,,,1.6955795776
1748247370154926990,-0.257,,,,1.6963496066
1748247370162627280,-0.25,,,,1.6971196356
1748247370170327570,-0.242,,,,1.6978896646
1748247370178027860,-0.23,,,,1.6986596936
1748247370185728150,-0.221,,,,1.6994297226
1748247370193428440,-0.211,,,,1.7001997516
1748247370201128730,-0.206,,,,1.7009697806
1748247370208829020,-0.199,,,,1.7017398096
1748247370216529310,-0.187,,,,1.7025098386
1748247370224229600,-0.179,,,,1.7032798676
1748247370231929890,-0.172,,,,1.7040498966
1748247370239630180,-0.165,,,,1.7048199256
1748247370247330470,-0.162,,,,1.7055899546
1748247370255030760,-0.157,,,,1.7063599836
1748247370262731050,-0.155,,,,1.7071300126
1748247370270431340,-0.155,,,,1.7079000416
1748247370278131630,-0.155,,,,1.7086700706
1748247370285831920,-0.153,,,,1.7094400996
1748247370293532210,-0.153,,,,1.7102101286
1748247370301232500,-0.155,,,,1.7109801576
1748247370308932790,-0.155,,,,1.7117501866
1748247370316633080,-0.155,,,,1.7125202156
1748247370324333370,-0.155,,,,1.7132902446
1748247370332033660,-0.155,,,,1.7140602736
1748247370339733950,-0.155,,,,1.7148303026
1748247370347434240,-0.155,,,,1.7156003316
1748247370355134530,-0.15,,,,1.7163703606
1748247370362834820,-0.15,,,,1.7171403896
1748247370370535110,-0.148,,,,1.7179104186
1748247370378235400,-0.145,,,,1.7186804476
1748247370385935690,-0.145,,,,1.7194504766
1748247370393635980,-0.143,,,,1.7202205056
1748247370401336270,-0.143,,,,1.7209905346
1748247370409036560,-0.143,,,,1.7217605636
1748247370416736850,-0.14,,,,1.7225305926
1748247370424437140,-0.14,,,,1.7233006216
1748247370432137430,-0.138,,,,1.7240706506
1748247370439837720,-0.138,,,,1.7248406796
1748247370447538010,-0.138,,,,1.7256107086
1748247370455238300,-0.136,,,,1.7263807376
1748247370462938590,-0.126,,,,1.7271507666
1748247370470638880,-0.126,,,,1.7279207956
1748247370478339170,-0.128,,,,1.7286908246
1748247370486039460,-0.126,,,,1.7294608536
1748247370493739750,-0.106,,,,1.7302308826
1748247370501440040,-0.077,,,,1.7310009116
1748247370509140330,-0.058,,,,1.7317709406
1748247370516840620,-0.07,,,,1.7325409696
1748247370524540910,-0.099,,,,1.7333109986
1748247370532241200,-0.133,,,,1.7340810276
1748247370539941490,-0.155,,,,1.7348510566
1748247370547641780,-0.153,,,,1.7356210856
1748247370555342070,-0.14,,,,1.7363911146
1748247370563042360,-0.14,,,,1.7371611436
1748247370570742650,-0.136,,,,1.7379311726
1748247370578442940,-0.128,,,,1.7387012016
1748247370586143230,-0.123,,,,1.7394712306
1748247370593843520,-0.148,,,,1.7402412596
1748247370601543810,-0.204,,,,1.7410112886
1748247370609244100,-0.043,,,,1.7417813176
1748247370616944434,0.58,,,,1.742551351
1748247370624644724,1.234,,,,1.74332138
1748247370632345014,1.268,,,,1.744091409
1748247370640045304,0.524,,,,1.744861438
1748247370647745594,-0.429,,,,1.745631467
1748247370655445884,-0.551,,,,1.746401496
1748247370663146174,-0.094,,,,1.747171525
1748247370670846464,-0.119,,,,1.747941554
1748247370678546754,-0.313,,,,1.748711583
1748247370686247044,-0.201,,,,1.749481612
1748247370693947334,-0.143,,,,1.750251641
1748247370701647624,-0.206,,,,1.75102167
1748247370709347914,-0.182,,,,1.751791699
1748247370717048204,-0.14,,,,1.752561728
1748247370724748494,-0.15,,,,1.753331757
1748247370732448784,-0.138,,,,1.754101786
1748247370740149074,-0.111,,,,1.754871815
1748247370747849364,-0.109,,,,1.755641844
1748247370755549654,-0.097,,,,1.756411873
1748247370763249944,-0.077,,,,1.757181902
1748247370770950234,-0.068,,,,1.757951931
1748247370778650524,-0.053,,,,1.75872196
1748247370786350814,-0.031,,,,1.759491989
1748247370794051104,-0.012,,,,1.760262018
1748247370801751394,0.007,,,,1.761032047
1748247370809451684,0.029,,,,1.761802076
1748247370817151974,0.051,,,,1.762572105
1748247370824852264,0.068,,,,1.763342134
1748247370832552554,0.085,,,,1.764112163
1748247370840252844,0.092,,,,1.764882192
1748247370847953134,0.094,,,,1.765652221
1748247370855653424,0.089,,,,1.76642225
1748247370863353714,0.053,,,,1.767192279
1748247370871054004,-0.017,,,,1.767962308
1748247370878754294,-0.104,,,,1.768732337
1748247370886454584,-0.179,,,,1.769502366
1748247370894154874,-0.228,,,,1.770272395
1748247370901855164,-0.257,,,,1.771042424
1748247370909555454,-0.269,,,,1.771812453
1748247370917255744,-0.274,,,,1.772582482
1748247370924956034,-0.276,,,,1.773352511
1748247370932656324,-0.269,,,,1.77412254
1748247370940356614,-0.259,,,,1.774892569
1748247370948056904,-0.255,,,,1.775662598
1748247370955757194,-0.245,,,,1.776432627
1748247370963457484,-0.233,,,,1.777202656
1748247370971157774,-0.223,,,,1.777972685
1748247370978858064,-0.211,,,,1.778742714
1748247370986558354,-0.206,,,,1.779512743
1748247370994258644,-0.199,,,,1.780282772
1748247371001958934,-0.189,,,,1.781052801
1748247371009659224,-0.179,,,,1.78182283
1748247371017359514,-0.172,,,,1.782592859
1748247371025059804,-0.167,,,,1.783362888
1748247371032760094,-0.162,,,,1.784132917
1748247371040460384,-0.157,,,,1.784902946
1748247371048160674,-0.153,,,,1.785672975
1748247371055860964,-0.148,,,,1.786443004
1748247371063561254,-0.145,,,,1.787213033
1748247371071261544,-0.143,,,,1.787983062
1748247371078961834,-0.14,,,,1.788753091
1748247371086662124,-0.14,,,,1.78952312
1748247371094362414,-0.143,,,,1.790293149
1748247371102062704,-0.143,,,,1.791063178
1748247371109762994,-0.143,,,,1.791833207
1748247371117463284,-0.145,,,,1.792603236
1748247371125163574,-0.145,,,,1.793373265
1748247371132863864,-0.143,,,,1.794143294
1748247371140564154,-0.143,,,,1.794913323
1748247371148264444,-0.143,,,,1.795683352
1748247371155964734,-0.14,,,,1.796453381
1748247371163665024,-0.138,,,,1.79722341
1748247371171365314,-0.136,,,,1.797993439
1748247371179065648,-0.133,83.0,790.0,,1.7987634724
1748247371186765938,-0.136,,,,1.7995335014
1748247371194466228,-0.133,,,,1.8003035304
1748247371202166518,-0.131,,,,1.8010735594
1748247371209866808,-0.128,,,,1.8018435884
1748247371217567098,-0.123,,,,1.8026136174
1748247371225267388,-0.121,,,,1.8033836464
1748247371232967678,-0.123,,,,1.8041536754
1748247371240667968,-0.121,,,,1.8049237044
1748247371248368258,-0.114,,,,1.8056937334
1748247371256068548,-0.114,,,,1.8064637624
1748247371263768838,-0.126,,,,1.8072337914
1748247371271469128,-0.126,,,,1.8080038204
1748247371279169418,-0.102,,,,1.8087738494
1748247371286869708,-0.089,,,,1.8095438784
1748247371294569998,-0.102,,,,1.8103139074
1748247371302270288,-0.121,,,,1.8110839364
1748247371309970578,-0.116,,,,1.8118539654
1748247371317670868,-0.099,,,,1.8126239944
1748247371325371158,-0.111,,,,1.8133940234
1748247371333071448,-0.131,,,,1.8141640524
1748247371340771738,-0.109,,,,1.8149340814
1748247371348472028,-0.065,,,,1.8157041104
1748247371356172318,-0.043,,,,1.8164741394
1748247371363872608,-0.048,,,,1.8172441684
1748247371371572898,-0.06,,,,1.8180141974
1748247371379273188,-0.089,,,,1.8187842264
1748247371386973478,-0.123,,,,1.8195542554
1748247371394673768,-0.123,,,,1.8203242844
1748247371402374058,-0.102,,,,1.8210943134
1748247371410074348,-0.092,,,,1.8218643424
1748247371417774638,-0.097,,,,1.8226343714
1748247371425474928,-0.092,,,,1.8234044004
1748247371433175218,-0.082,,,,1.8241744294
1748247371440875508,-0.104,,,,1.8249444584
1748247371448575798,-0.165,,,,1.8257144874
1748247371456276088,-0.053,,,,1.8264845164
1748247371463976378,0.514,,,,1.8272545454
1748247371471676668,1.241,,,,1.8280245744
1748247371479376958,1.438,,,,1.8287946034
1748247371487077248,0.8230000000000001,,,,1.8295646324
1748247371494777538,-0.213,,,,1.8303346614
1748247371502477828,-0.5660000000000001,,,,1.8311046904
1748247371510178118,-0.126,,,,1.8318747194
1748247371517878408,-0.063,,,,1.8326447484
1748247371525578698,-0.301,,,,1.8334147774
1748247371533278988,-0.216,,,,1.8341848064
1748247371540979278,-0.128,,,,1.8349548354
1748247371548679568,-0.191,,,,1.8357248644
1748247371556379858,-0.177,,,,1.8364948934
1748247371564080148,-0.128,,,,1.8372649224
1748247371571780438,-0.14,,,,1.8380349514
1748247371579480728,-0.136,,,,1.8388049804
1748247371587181018,-0.106,,,,1.8395750094
1748247371594881308,-0.094,,,,1.8403450384
1748247371602581598,-0.082,,,,1.8411150674
1748247371610281888,-0.072,,,,1.8418850964
1748247371617982178,-0.072,,,,1.8426551254
1748247371625682468,-0.06,,,,1.8434251544
1748247371633382758,-0.036,,,,1.8441951834
1748247371641083048,-0.021,,,,1.8449652124
1748247371648783338,-0.007,,,,1.8457352414
1748247371656483628,0.009,,,,1.8465052704
1748247371664183918,0.029,,,,1.8472752994
1748247371671884208,0.053,,,,1.8480453284
1748247371679584498,0.068,,,,1.8488153574
1748247371687284788,0.08,,,,1.8495853864
1748247371694985078,0.082,,,,1.8503554154
1748247371702685368,0.065,,,,1.8511254444
1748247371710385658,0.046,,,,1.8518954734
1748247371718085948,-0.002,,,,1.8526655024
1748247371725786238,-0.094,,,,1.8534355314
1748247371733486528,-0.182,,,,1.8542055604
1748247371741186862,-0.225,82.0,749.0,,1.8549755938
1748247371748886734,-0.25,,,,1.855745581
1748247371756586606,-0.272,,,,1.8565155682
1748247371764286478,-0.279,,,,1.8572855554
1748247371771986350,-0.274,,,,1.8580555426
1748247371779686222,-0.269,,,,1.8588255298
1748247371787386094,-0.259,,,,1.859595517
1748247371795085966,-0.25,,,,1.8603655042
1748247371802785838,-0.247,,,,1.8611354914
1748247371810485710,-0.238,,,,1.8619054786
1748247371818185582,-0.221,,,,1.8626754658
1748247371825885454,-0.213,,,,1.863445453
1748247371833585326,-0.206,,,,1.8642154402
1748247371841285198,-0.189,,,,1.8649854274
1748247371848985070,-0.182,,,,1.8657554146
1748247371856684942,-0.177,,,,1.8665254018
1748247371864384814,-0.184,,,,1.867295389
1748247371872084686,-0.196,,,,1.8680653762
1748247371879784558,-0.177,,,,1.8688353634
1748247371887484430,-0.15,,,,1.8696053506
1748247371895184302,-0.136,,,,1.8703753378
1748247371902884174,-0.128,,,,1.871145325
1748247371910584046,-0.145,,,,1.8719153122
1748247371918283918,-0.145,,,,1.8726852994
1748247371925983790,-0.126,,,,1.8734552866
1748247371933683662,-0.119,,,,1.8742252738
1748247371941383534,-0.133,,,,1.874995261
1748247371949083406,-0.157,,,,1.8757652482
1748247371956783278,-0.148,,,,1.8765352354
1748247371964483150,-0.131,,,,1.8773052226
1748247371972183022,-0.138,,,,1.8780752098
1748247371979882894,-0.143,,,,1.878845197
1748247371987582766,-0.14,,,,1.8796151842
1748247371995282638,-0.148,,,,1.8803851714
1748247372002982510,-0.143,,,,1.8811551586
1748247372010682382,-0.131,,,,1.8819251458
1748247372018382254,-0.119,,,,1.882695133
1748247372026082126,-0.114,,,,1.8834651202
1748247372033781998,-0.128,,,,1.8842351074
1748247372041481870,-0.136,,,,1.8850050946
1748247372049181742,-0.121,,,,1.8857750818
1748247372056881614,-0.116,,,,1.886545069
1748247372064581486,-0.116,,,,1.8873150562
1748247372072281358,-0.116,,,,1.8880850434
1748247372079981230,-0.128,,,,1.8888550306
1748247372087681102,-0.128,,,,1.8896250178
1748247372095380974,-0.104,,,,1.890395005
1748247372103080846,-0.085,,,,1.8911649922
1748247372110780718,-0.104,,,,1.8919349794
1748247372118480590,-0.143,,,,1.8927049666
1748247372126180462,-0.136,,,,1.8934749538
1748247372133880334,-0.094,,,,1.894244941
1748247372141580206,-0.089,,,,1.8950149282
1748247372149280078,-0.106,,,,1.8957849154
1748247372156979950,-0.104,,,,1.8965549026
1748247372164679822,-0.089,,,,1.8973248898
1748247372172379694,-0.092,,,,1.898094877
1748247372180079566,-0.065,,,,1.8988648642
1748247372187779438,-0.024,,,,1.8996348514
1748247372195479310,-0.036,,,,1.9004048386
1748247372203179182,-0.07,,,,1.9011748258
1748247372210879054,-0.102,,,,1.901944813
1748247372218578926,-0.128,,,,1.9027148002
1748247372226278798,-0.133,,,,1.9034847874
1748247372233978670,-0.121,,,,1.9042547746
1748247372241678542,-0.119,,,,1.9050247618
1748247372249378414,-0.119,,,,1.905794749
1748247372257078286,-0.111,,,,1.9065647362
1748247372264778158,-0.094,,,,1.9073347234
1748247372272478030,-0.099,,,,1.9081047106
1748247372280177902,-0.172,,,,1.9088746978
1748247372287877774,-0.053,,,,1.909644685
1748247372295577646,0.612,,,,1.9104146722
1748247372303277562,1.338,,,,1.9111846638
1748247372310977852,1.384,,,,1.9119546928
1748247372318678142,0.648,,,,1.9127247218
1748247372326378432,-0.383,,,,1.9134947508
1748247372334078722,-0.619,,,,1.9142647798
1748247372341779012,-0.119,,,,1.9150348088
1748247372349479302,-0.102,,,,1.9158048378
1748247372357179592,-0.352,,,,1.9165748668
1748247372364879882,-0.233,,,,1.9173448958
1748247372372580172,-0.128,,,,1.9181149248
1748247372380280462,-0.196,,,,1.9188849538
1748247372387980752,-0.187,,,,1.9196549828
1748247372395681042,-0.128,,,,1.9204250118
1748247372403381332,-0.123,,,,1.9211950408
1748247372411081622,-0.121,,,,1.9219650698
1748247372418781912,-0.116,,,,1.9227350988
1748247372426482202,-0.116,,,,1.9235051278
1748247372434182492,-0.094,,,,1.9242751568
1748247372441882782,-0.068,,,,1.9250451858
1748247372449583072,-0.048,,,,1.9258152148
1748247372457283362,-0.034,,,,1.9265852438
1748247372464983652,-0.031,,,,1.9273552728
1748247372472683942,-0.021,,,,1.9281253018
1748247372480384232,0.007,,,,1.9288953308
1748247372488084522,0.021,,,,1.9296653598
1748247372495784812,0.043,,,,1.9304353888
1748247372503485102,0.099,,,,1.9312054178
1748247372511185392,0.116,,,,1.9319754468
1748247372518885682,0.06,,,,1.9327454758
1748247372526585972,0.048,,,,1.9335155048
1748247372534286262,0.092,,,,1.9342855338
1748247372541986552,0.065,,,,1.9350555628
1748247372549686842,-0.026,,,,1.9358255918
1748247372557387132,-0.111,,,,1.9365956208
1748247372565087422,-0.189,,,,1.9373656498
1748247372572787712,-0.242,,,,1.9381356788
1748247372580488002,-0.255,,,,1.9389057078
1748247372588188292,-0.281,,,,1.9396757368
1748247372595888582,-0.31,,,,1.9404457658
1748247372603588872,-0.298,,,,1.9412157948
1748247372611289162,-0.276,,,,1.9419858238
1748247372618989452,-0.274,,,,1.9427558528
1748247372626689742,-0.272,,,,1.9435258818
1748247372634390032,-0.267,,,,1.9442959108
1748247372642090322,-0.259,,,,1.9450659398
1748247372649790612,-0.228,,,,1.9458359688
1748247372657490902,-0.211,,,,1.9466059978
1748247372665191192,-0.23,,,,1.9473760268
1748247372672891482,-0.238,,,,1.9481460558
1748247372680591772,-0.218,,,,1.9489160848
1748247372688292062,-0.208,,,,1.9496861138
1748247372695992352,-0.208,,,,1.9504561428
1748247372703692642,-0.174,,,,1.9512261718
1748247372711392932,-0.14,,,,1.9519962008
1748247372719093222,-0.153,,,,1.9527662298
1748247372726793512,-0.165,,,,1.9535362588
1748247372734493802,-0.15,,,,1.9543062878
1748247372742194092,-0.145,,,,1.9550763168
1748247372749894382,-0.15,,,,1.9558463458
1748247372757594672,-0.138,,,,1.9566163748
1748247372765294962,-0.133,,,,1.9573864038
1748247372772995252,-0.155,,,,1.9581564328
1748247372780695542,-0.17,,,,1.9589264618
1748247372788395832,-0.16,,,,1.9596964908
1748247372796096122,-0.153,,,,1.9604665198
1748247372803796412,-0.16,,,,1.9612365488
1748247372811496702,-0.157,,,,1.9620065778
1748247372819196992,-0.16,,,,1.9627766068
1748247372826897282,-0.157,,,,1.9635466358
1748247372834597572,-0.14,,,,1.9643166648
1748247372842297862,-0.143,,,,1.9650866938
1748247372849998152,-0.157,,,,1.9658567228
1748247372857698442,-0.15,,,,1.9666267518
1748247372865398776,-0.14,82.0,805.0,,1.9673967852
1748247372873099066,-0.143,,,,1.9681668142
1748247372880799356,-0.131,,,,1.9689368432
1748247372888499646,-0.126,,,,1.9697068722
1748247372896199936,-0.131,,,,1.9704769012
1748247372903900226,-0.126,,,,1.9712469302
1748247372911600516,-0.131,,,,1.9720169592
1748247372919300806,-0.143,,,,1.9727869882
1748247372927001096,-0.128,,,,1.9735570172
1748247372934701386,-0.104,,,,1.9743270462
1748247372942401676,-0.104,,,,1.9750970752
1748247372950101966,-0.121,,,,1.9758671042
1748247372957802256,-0.109,,,,1.9766371332
1748247372965502546,-0.08,,,,1.9774071622
1748247372973202836,-0.065,,,,1.9781771912
1748247372980903126,-0.06,,,,1.9789472202
1748247372988603416,-0.06,,,,1.9797172492
1748247372996303706,-0.07,,,,1.9804872782
1748247373004003996,-0.097,,,,1.9812573072
1748247373011704286,-0.131,,,,1.9820273362
1748247373019404576,-0.138,,,,1.9827973652
1748247373027104866,-0.128,,,,1.9835673942
1748247373034805156,-0.119,,,,1.9843374232
1748247373042505446,-0.116,,,,1.9851074522
1748247373050205736,-0.133,,,,1.9858774812
1748247373057906026,-0.14,,,,1.9866475102
1748247373065606316,-0.119,,,,1.9874175392
1748247373073306606,-0.133,,,,1.9881875682
1748247373081006896,0.034,,,,1.9889575972
1748247373088707186,0.687,,,,1.9897276262
1748247373096407476,1.353,,,,1.9904976552
1748247373104107766,1.353,,,,1.9912676842
1748247373111808056,0.592,,,,1.9920377132
1748247373119508346,-0.437,,,,1.9928077422
1748247373127208636,-0.648,,,,1.9935777712
1748247373134908926,-0.116,,,,1.9943478002
1748247373142609216,-0.065,,,,1.9951178292
1748247373150309506,-0.303,,,,1.9958878582
1748247373158009796,-0.204,,,,1.9966578872
1748247373165710086,-0.126,,,,1.9974279162
1748247373173410376,-0.201,,,,1.9981979452
1748247373181110666,-0.165,,,,1.9989679742
1748247373188810956,-0.099,,,,1.9997380032
1748247373196511246,-0.114,,,,2.0005080322
1748247373204211536,-0.119,,,,2.0012780612
1748247373211911826,-0.08,,,,2.0020480902
1748247373219612116,-0.08,,,,2.0028181192
1748247373227312406,-0.104,,,,2.0035881482
1748247373235012696,-0.077,,,,2.0043581772
1748247373242712986,-0.004,,,,2.0051282062
1748247373250413276,0.026,,,,2.0058982352
1748247373258113566,0.009,,,,2.0066682642
1748247373265813856,0.021,,,,2.0074382932
1748247373273514146,0.058,,,,2.0082083222
1748247373281214436,0.082,,,,2.0089783512
1748247373288914726,0.099,,,,2.0097483802
1748247373296615016,0.109,,,,2.0105184092
1748247373304315306,0.111,,,,2.0112884382
1748247373312015596,0.119,,,,2.0120584672
1748247373319715886,0.133,,,,2.0128284962
1748247373327416176,0.131,,,,2.0135985252
1748247373335116466,0.082,,,,2.0143685542
1748247373342816756,0.002,,,,2.0151385832
1748247373350517046,-0.092,,,,2.0159086122
1748247373358217336,-0.179,,,,2.0166786412
1748247373365917626,-0.233,,,,2.0174486702
1748247373373617916,-0.257,,,,2.0182186992
1748247373381318206,-0.269,,,,2.0189887282
1748247373389018496,-0.274,,,,2.0197587572
1748247373396718786,-0.281,,,,2.0205287862
1748247373404419076,-0.279,,,,2.0212988152
1748247373412119366,-0.269,,,,2.0220688442
1748247373419819656,-0.259,,,,2.0228388732
1748247373427519990,-0.247,,,,2.0236089066
1748247373435220280,-0.247,,,,2.0243789356
1748247373442920570,-0.25,,,,2.0251489646
1748247373450620860,-0.216,,,,2.0259189936
1748247373458321150,-0.189,,,,2.0266890226
1748247373466021440,-0.201,,,,2.0274590516
1748247373473721730,-0.199,,,,2.0282290806
1748247373481422020,-0.184,,,,2.0289991096
1748247373489122310,-0.177,,,,2.0297691386
1748247373496822600,-0.162,,,,2.0305391676
1748247373504522890,-0.15,,,,2.0313091966
1748247373512223180,-0.148,,,,2.0320792256
1748247373519923470,-0.145,,,,2.0328492546
1748247373527623760,-0.14,,,,2.0336192836
1748247373535324050,-0.136,,,,2.0343893126
1748247373543024340,-0.131,,,,2.0351593416
1748247373550724630,-0.126,,,,2.0359293706
1748247373558424920,-0.133,,,,2.0366993996
1748247373566125210,-0.143,,,,2.0374694286
1748247373573825500,-0.131,,,,2.0382394576
1748247373581525790,-0.131,,,,2.0390094866
1748247373589226080,-0.145,,,,2.0397795156
1748247373596926370,-0.145,,,,2.0405495446
1748247373604626660,-0.145,,,,2.0413195736
1748247373612326950,-0.148,,,,2.0420896026
1748247373620027240,-0.14,,,,2.0428596316
1748247373627727530,-0.131,,,,2.0436296606
1748247373635427820,-0.126,,,,2.0443996896
1748247373643128110,-0.133,,,,2.0451697186
1748247373650828400,-0.143,,,,2.0459397476
1748247373658528690,-0.145,,,,2.0467097766
1748247373666228980,-0.143,,,,2.0474798056
1748247373673929270,-0.133,,,,2.0482498346
1748247373681629560,-0.133,,,,2.0490198636
1748247373689329850,-0.143,,,,2.0497898926
1748247373697030140,-0.133,,,,2.0505599216
1748247373704730430,-0.128,,,,2.0513299506
1748247373712430720,-0.138,,,,2.0520999796
1748247373720131010,-0.133,,,,2.0528700086
1748247373727831300,-0.123,,,,2.0536400376
1748247373735531590,-0.123,,,,2.0544100666
1748247373743231880,-0.121,,,,2.0551800956
1748247373750932170,-0.111,,,,2.0559501246
1748247373758632460,-0.097,,,,2.0567201536
1748247373766332750,-0.08,,,,2.0574901826
1748247373774033040,-0.075,,,,2.0582602116
1748247373781733330,-0.072,,,,2.0590302406
1748247373789433620,-0.07,,,,2.0598002696
1748247373797133910,-0.109,,,,2.0605702986
1748247373804834200,-0.153,,,,2.0613403276
1748247373812534490,-0.145,,,,2.0621103566
1748247373820234780,-0.126,,,,2.0628803856
1748247373827935070,-0.128,,,,2.0636504146
1748247373835635360,-0.121,,,,2.0644204436
1748247373843335650,-0.119,,,,2.0651904726
1748247373851035940,-0.133,,,,2.0659605016
1748247373858736230,-0.162,,,,2.0667305306
1748247373866436520,-0.17,,,,2.0675005596
1748247373874136810,0.123,,,,2.0682705886
1748247373881837100,0.838,,,,2.0690406176
1748247373889537390,1.365,,,,2.0698106466
1748247373897237680,1.151,,,,2.0705806756
1748247373904937970,0.242,,,,2.0713507046
1748247373912638260,-0.58,,,,2.0721207336
1748247373920338550,-0.439,,,,2.0728907626
1748247373928038840,-0.029,,,,2.0736607916
1748247373935739130,-0.187,,,,2.0744308206
1748247373943439420,-0.31,,,,2.0752008496
1748247373951139710,-0.162,,,,2.0759708786
1748247373958840000,-0.153,,,,2.0767409076
1748247373966540290,-0.201,,,,2.0775109366
1748247373974240580,-0.145,,,,2.0782809656
1748247373981940870,-0.116,,,,2.0790509946
1748247373989641204,-0.133,81.0,849.0,,2.079821028
1748247373997341494,-0.128,,830.0,,2.080591057
1748247374005041784,-0.111,,,,2.081361086
1748247374012742074,-0.102,,,,2.082131115
1748247374020442364,-0.087,,,,2.082901144
1748247374028142654,-0.07,,,,2.083671173
1748247374035842944,-0.06,,,,2.084441202
1748247374043543234,-0.041,,,,2.085211231
1748247374051243524,-0.004,,,,2.08598126
1748247374058943814,0.024,,,,2.086751289
1748247374066644104,0.043,,,,2.087521318
1748247374074344394,0.058,,,,2.088291347
1748247374082044684,0.075,,,,2.089061376
1748247374089744974,0.087,,,,2.089831405
1748247374097445264,0.092,,,,2.090601434
1748247374105145554,0.109,,,,2.091371463
1748247374112845844,0.121,,,,2.092141492
1748247374120546134,0.097,,,,2.092911521
1748247374128246424,0.048,,,,2.09368155
1748247374135946714,-0.009,,,,2.094451579
1748247374143647004,-0.106,,,,2.095221608
1748247374151347294,-0.204,,,,2.095991637
1748247374159047584,-0.235,,,,2.096761666
1748247374166747874,-0.252,,,,2.097531695
1748247374174448164,-0.289,,,,2.098301724
1748247374182148454,-0.298,,,,2.099071753
1748247374189848744,-0.284,,,,2.099841782
1748247374197549034,-0.272,,,,2.100611811
1748247374205249324,-0.267,,,,2.10138184
1748247374212949614,-0.262,,,,2.102151869
1748247374220649904,-0.242,,,,2.102921898
1748247374228350194,-0.223,,,,2.103691927
1748247374236050484,-0.223,,,,2.104461956
1748247374243750774,-0.221,,,,2.105231985
1748247374251451064,-0.206,,,,2.106002014
1748247374259151354,-0.199,,,,2.106772043
1748247374266851644,-0.204,,,,2.107542072
1748247374274551934,-0.196,,,,2.108312101
1748247374282252224,-0.179,,,,2.10908213
1748247374289952514,-0.172,,,,2.109852159
1748247374297652804,-0.172,,,,2.110622188
1748247374305353094,-0.17,,,,2.111392217
1748247374313053384,-0.155,,,,2.112162246
1748247374320753674,-0.148,,,,2.112932275
1748247374328453964,-0.153,,,,2.113702304
1748247374336154254,-0.15,,,,2.114472333
1748247374343854544,-0.145,,,,2.115242362
1748247374351554834,-0.15,,,,2.116012391
1748247374359255124,-0.145,,,,2.11678242
1748247374366955414,-0.153,,,,2.117552449
1748247374374655704,-0.17,,,,2.118322478
1748247374382355994,-0.162,,,,2.119092507
1748247374390056284,-0.143,,,,2.119862536
1748247374397756574,-0.136,,,,2.120632565
1748247374405456864,-0.126,,,,2.121402594
1748247374413157154,-0.119,,,,2.122172623
1748247374420857444,-0.128,,,,2.122942652
1748247374428557734,-0.148,,,,2.123712681
1748247374436258024,-0.15,,,,2.12448271
1748247374443958314,-0.128,,,,2.125252739
1748247374451658604,-0.119,,,,2.126022768
1748247374459358894,-0.14,,,,2.126792797
1748247374467059184,-0.157,,,,2.127562826
1748247374474759474,-0.136,,,,2.128332855
1748247374482459764,-0.126,,,,2.129102884
1748247374490160054,-0.143,,,,2.129872913
1748247374497860344,-0.14,,,,2.130642942
1748247374505560634,-0.119,,,,2.131412971
1748247374513260924,-0.123,,,,2.132183
1748247374520961214,-0.133,,,,2.132953029
1748247374528661504,-0.119,,,,2.133723058
1748247374536361794,-0.092,,,,2.134493087
1748247374544062084,-0.106,,,,2.135263116
1748247374551762418,-0.138,,,,2.1360331494
1748247374559462708,-0.121,,,,2.1368031784
1748247374567162998,-0.08,,,,2.1375732074
1748247374574863288,-0.07,,,,2.1383432364
1748247374582563578,-0.082,,,,2.1391132654
1748247374590263868,-0.07,,,,2.1398832944
1748247374597964158,-0.055,,,,2.1406533234
1748247374605664448,-0.099,,,,2.1414233524
1748247374613364738,-0.14,,,,2.1421933814
1748247374621065028,-0.131,,,,2.1429634104
1748247374628765318,-0.128,,,,2.1437334394
1748247374636465608,-0.143,,,,2.1445034684
1748247374644165898,-0.131,,,,2.1452734974
1748247374651866188,-0.109,,,,2.1460435264
1748247374659566478,-0.106,,,,2.1468135554
1748247374667266768,-0.133,,,,2.1475835844
1748247374674967058,-0.182,,,,2.1483536134
1748247374682667348,-0.012,,,,2.1491236424
1748247374690367638,0.614,,,,2.1498936714
1748247374698067928,1.292,,,,2.1506637004
1748247374705768218,1.391,,,,2.1514337294
1748247374713468508,0.685,,,,2.1522037584
1748247374721168798,-0.364,,,,2.1529737874
1748247374728869088,-0.595,,,,2.1537438164
1748247374736569378,-0.114,,,,2.1545138454
1748247374744269668,-0.097,,,,2.1552838744
1748247374751969958,-0.315,,,,2.1560539034
1748247374759670248,-0.225,,,,2.1568239324
1748247374767370538,-0.165,,,,2.1575939614
1748247374775070828,-0.216,,,,2.1583639904
1748247374782771118,-0.196,,,,2.1591340194
1748247374790471408,-0.16,,,,2.1599040484
1748247374798171698,-0.167,,,,2.1606740774
1748247374805871988,-0.155,,,,2.1614441064
