time,ecg,hr,rr,marker,norm_time
1741759297218204305,-0.964,104.0,,,0.0
1741759297225908009,-0.956,,,,0.0007703704
1741759297233611713,-0.954,,,,0.0015407408
1741759297241315417,-0.956,,,,0.0023111112
1741759297249019121,-0.959,,,,0.0030814816
1741759297256722825,-0.959,,,,0.003851852
1741759297264426529,-0.959,,,,0.0046222224
1741759297272130233,-0.959,,,,0.0053925928
1741759297279833937,-0.964,,,,0.0061629632
1741759297287537641,-0.964,,,,0.0069333336
1741759297295241345,-0.959,,,,0.007703704
1741759297302945049,-0.959,,,,0.0084740744
1741759297310648753,-0.959,,,,0.0092444448
1741759297318352457,-0.959,,,,0.0100148152
1741759297326056161,-0.956,,,,0.0107851856
1741759297333759865,-0.954,,,,0.011555556
1741759297341463569,-0.954,,,,0.0123259264
1741759297349167273,-0.956,,,,0.0130962968
1741759297356870977,-0.954,,,,0.0138666672
1741759297364574681,-0.952,,,,0.0146370376
1741759297372278385,-0.952,,,,0.015407408
1741759297379982089,-0.952,,,,0.0161777784
1741759297387685793,-0.949,,,,0.0169481488
1741759297395389497,-0.947,,,,0.0177185192
1741759297403093201,-0.949,,,,0.0184888896
1741759297410796905,-0.949,,,,0.01925926
1741759297418500609,-0.944,,,,0.0200296304
1741759297426204313,-0.939,,,,0.0208000008
1741759297433908017,-0.944,,,,0.0215703712
1741759297441611721,-0.952,,,,0.0223407416
1741759297449315425,-0.952,,,,0.023111112
1741759297457019129,-0.956,,,,0.0238814824
1741759297464722833,-0.961,,,,0.0246518528
1741759297472426537,-0.954,,,,0.0254222232
1741759297480130241,-0.947,,,,0.0261925936
1741759297487833945,-0.944,,,,0.026962964
1741759297495537649,-0.939,,,,0.0277333344
1741759297503241353,-0.932,,,,0.0285037048
1741759297510945057,-0.927,,,,0.0292740752
1741759297518648761,-0.929,,,,0.0300444456
1741759297526352465,-0.925,,,,0.030814816
1741759297534056169,-0.917,,,,0.0315851864
1741759297541759873,-0.915,,,,0.0323555568
1741759297549463577,-0.915,,,,0.0331259272
1741759297557167281,-0.912,,,,0.0338962976
1741759297564870985,-0.91,,,,0.034666668
1741759297572574689,-0.91,,,,0.0354370384
1741759297580278393,-0.937,,,,0.0362074088
1741759297587982097,-1.042,,,,0.0369777792
1741759297595685801,-1.175,,,,0.0377481496
1741759297603389505,-1.005,,,,0.03851852
1741759297611093209,-0.321,,,,0.0392888904
1741759297618796913,0.198,,,,0.0400592608
1741759297626500617,-0.149,,,,0.0408296312
1741759297634204321,-0.684,,,,0.0416000016
1741759297641908025,-0.777,,,,0.042370372
1741759297649611729,-0.91,,,,0.0431407424
1741759297657315433,-1.175,,,,0.0439111128
1741759297665019137,-1.177,,,,0.0446814832
1741759297672722841,-1.072,,,,0.0454518536
1741759297680426545,-1.086,,,,0.046222224
1741759297688130249,-1.089,,,,0.0469925944
1741759297695833953,-1.042,,,,0.0477629648
1741759297703537657,-1.035,,,,0.0485333352
1741759297711241361,-1.037,,,,0.0493037056
1741759297718945065,-1.02,,,,0.050074076
1741759297726648769,-1.015,,,,0.0508444464
1741759297734352473,-1.018,,,,0.0516148168
1741759297742056177,-1.015,,,,0.0523851872
1741759297749759881,-1.01,,,,0.0531555576
1741759297757463585,-1.01,,,,0.053925928
1741759297765167289,-1.013,,,,0.0546962984
1741759297772870993,-1.008,,,,0.0554666688
1741759297780574754,-1.003,,,,0.0562370449
1741759297788278458,-1.003,,,,0.0570074153
1741759297795982162,-1.003,,,,0.0577777857
1741759297803685866,-1.001,,,,0.0585481561
1741759297811389570,-0.993,,,,0.0593185265
1741759297819093274,-0.986,,,,0.0600888969
1741759297826796978,-0.981,,,,0.0608592673
1741759297834500682,-0.978,,,,0.0616296377
1741759297842204386,-0.974,,,,0.0624000081
1741759297849908090,-0.961,,,,0.0631703785
1741759297857611794,-0.949,,,,0.0639407489
1741759297865315498,-0.937,,,,0.0647111193
1741759297873019202,-0.925,,,,0.0654814897
1741759297880722906,-0.92,,,,0.0662518601
1741759297888426610,-0.915,,,,0.0670222305
1741759297896130314,-0.91,,,,0.0677926009
1741759297903834018,-0.907,,,,0.0685629713
1741759297911537722,-0.91,,,,0.0693333417
1741759297919241426,-0.912,,,,0.0701037121
1741759297926945130,-0.917,,,,0.0708740825
1741759297934648834,-0.92,,,,0.0716444529
1741759297942352538,-0.922,,,,0.0724148233
1741759297950056242,-0.922,,,,0.0731851937
1741759297957759946,-0.929,,,,0.0739555641
1741759297965463650,-0.929,,,,0.0747259345
1741759297973167354,-0.927,,,,0.0754963049
1741759297980871058,-0.929,,,,0.0762666753
1741759297988574762,-0.932,,,,0.0770370457
1741759297996278466,-0.929,,,,0.0778074161
1741759298003982170,-0.929,,,,0.0785777865
1741759298011685874,-0.929,,,,0.0793481569
1741759298019389578,-0.927,,,,0.0801185273
1741759298027093282,-0.922,,,,0.0808888977
1741759298034796986,-0.922,,,,0.0816592681
1741759298042500690,-0.922,,,,0.0824296385
1741759298050204394,-0.917,,,,0.0832000089
1741759298057908098,-0.917,,,,0.0839703793
1741759298065611802,-0.915,,,,0.0847407497
1741759298073315506,-0.917,,,,0.0855111201
1741759298081019210,-0.925,,,,0.0862814905
1741759298088722914,-0.932,,,,0.0870518609
1741759298096426618,-0.934,,,,0.0878222313
1741759298104130322,-0.932,,,,0.0885926017
1741759298111834026,-0.929,,,,0.0893629721
1741759298119537730,-0.925,,,,0.0901333425
1741759298127241434,-0.912,,,,0.0909037129
1741759298134945138,-0.905,,,,0.0916740833
1741759298142648842,-0.91,,,,0.0924444537
1741759298150352546,-0.91,,,,0.0932148241
1741759298158056250,-0.907,,,,0.0939851945
1741759298165759954,-0.902,,,,0.0947555649
1741759298173463658,-0.898,,,,0.0955259353
1741759298181167362,-0.898,,,,0.0962963057
1741759298188871066,-0.895,,,,0.0970666761
1741759298196574770,-0.893,,,,0.0978370465
1741759298204278474,-0.898,,,,0.0986074169
1741759298211982178,-0.922,,,,0.0993777873
1741759298219685882,-1.02,,,,0.1001481577
1741759298227389586,-1.143,,,,0.1009185281
1741759298235093290,-1.003,,,,0.1016888985
1741759298242796994,-0.39,,,,0.1024592689
1741759298250500698,0.117,,,,0.1032296393
1741759298258204402,-0.179,,,,0.1040000097
1741759298265908106,-0.672,,,,0.1047703801
1741759298273611810,-0.748,,,,0.1055407505
1741759298281315514,-0.863,,,,0.1063111209
1741759298289019218,-1.106,,,,0.1070814913
1741759298296722922,-1.113,,,,0.1078518617
1741759298304426626,-1.02,,,,0.1086222321
1741759298312130330,-1.035,,,,0.1093926025
1741759298319834034,-1.04,,,,0.1101629729
1741759298327537738,-0.998,,,,0.1109333433
1741759298335241442,-0.991,,,,0.1117037137
1741759298342945199,-0.996,103.0,,,0.1124740894
1741759298350648903,-0.981,,,,0.1132444598
1741759298358352607,-0.974,,,,0.1140148302
1741759298366056311,-0.974,,,,0.1147852006
1741759298373760015,-0.969,,,,0.115555571
1741759298381463719,-0.966,,,,0.1163259414
1741759298389167423,-0.966,,,,0.1170963118
1741759298396871127,-0.961,,,,0.1178666822
1741759298404574831,-0.952,,,,0.1186370526
1741759298412278535,-0.947,,,,0.119407423
1741759298419982239,-0.947,,,,0.1201777934
1741759298427685943,-0.942,,,,0.1209481638
1741759298435389647,-0.934,,,,0.1217185342
1741759298443093351,-0.925,,,,0.1224889046
1741759298450797055,-0.912,,,,0.123259275
1741759298458500759,-0.905,,1823.0,,0.1240296454
1741759298466204463,-0.893,,,,0.1248000158
1741759298473908167,-0.885,,,,0.1255703862
1741759298481611871,-0.88,,,,0.1263407566
1741759298489315575,-0.868,,,,0.127111127
1741759298497019279,-0.861,,,,0.1278814974
1741759298504722983,-0.858,,,,0.1286518678
1741759298512426687,-0.856,,,,0.1294222382
1741759298520130391,-0.856,,,,0.1301926086
1741759298527834095,-0.856,,,,0.130962979
1741759298535537799,-0.858,,,,0.1317333494
1741759298543241503,-0.861,,,,0.1325037198
1741759298550945207,-0.861,,,,0.1332740902
1741759298558648911,-0.863,,,,0.1340444606
1741759298566352615,-0.858,,,,0.134814831
1741759298574056319,-0.863,,,,0.1355852014
1741759298581760023,-0.866,,,,0.1363555718
1741759298589463727,-0.861,,,,0.1371259422
1741759298597167431,-0.861,,,,0.1378963126
1741759298604871135,-0.861,,,,0.138666683
1741759298612574839,-0.861,,,,0.1394370534
1741759298620278543,-0.858,,,,0.1402074238
1741759298627982247,-0.858,,,,0.1409777942
1741759298635685951,-0.856,,,,0.1417481646
1741759298643389655,-0.853,,,,0.142518535
1741759298651093359,-0.851,,,,0.1432889054
1741759298658797063,-0.853,,,,0.1440592758
1741759298666500767,-0.848,,,,0.1448296462
1741759298674204471,-0.844,,,,0.1456000166
1741759298681908175,-0.836,,,,0.146370387
1741759298689611879,-0.836,,,,0.1471407574
1741759298697315583,-0.839,,,,0.1479111278
1741759298705019287,-0.834,,,,0.1486814982
1741759298712722991,-0.8310000000000001,,,,0.1494518686
1741759298720426695,-0.839,,,,0.150222239
1741759298728130399,-0.846,,,,0.1509926094
1741759298735834103,-0.851,,,,0.1517629798
1741759298743537807,-0.848,,,,0.1525333502
1741759298751241511,-0.846,,,,0.1533037206
1741759298758945215,-0.848,,,,0.154074091
1741759298766648919,-0.839,,,,0.1548444614
1741759298774352623,-0.8260000000000001,,,,0.1556148318
1741759298782056327,-0.8310000000000001,,,,0.1563852022
1741759298789760031,-0.839,,,,0.1571555726
1741759298797463735,-0.836,,,,0.157925943
1741759298805167439,-0.8290000000000001,,,,0.1586963134
1741759298812871143,-0.8310000000000001,,,,0.1594666838
1741759298820574847,-0.8310000000000001,,,,0.1602370542
1741759298828278551,-0.8290000000000001,,,,0.1610074246
1741759298835982255,-0.834,,,,0.161777795
1741759298843685959,-0.841,,,,0.1625481654
1741759298851389663,-0.89,,,,0.1633185358
1741759298859093367,-1.008,,,,0.1640889062
1741759298866797071,-1.079,,,,0.1648592766
1741759298874500775,-0.8190000000000001,,,,0.165629647
1741759298882204479,-0.22,,,,0.1664000174
1741759298889908183,0.014,,,,0.1671703878
1741759298897611887,-0.409,,,,0.1679407582
1741759298905315644,-0.723,101.0,,,0.1687111339
1741759298913019348,-0.709,,,,0.1694815043
1741759298920723052,-0.873,,,,0.1702518747
1741759298928426756,-1.077,,,,0.1710222451
1741759298936130460,-1.032,,,,0.1717926155
1741759298943834164,-0.969,,,,0.1725629859
1741759298951537868,-0.993,,,,0.1733333563
1741759298959241572,-0.981,,,,0.1741037267
1741759298966945276,-0.949,,,,0.1748740971
1741759298974648980,-0.952,,,,0.1756444675
1741759298982352684,-0.952,,,,0.1764148379
1741759298990056388,-0.939,,,,0.1771852083
1741759298997760092,-0.942,,,,0.1779555787
1741759299005463796,-0.942,,,,0.1787259491
1741759299013167500,-0.937,,,,0.1794963195
1741759299020871204,-0.934,,,,0.1802666899
1741759299028574908,-0.932,,,,0.1810370603
1741759299036278612,-0.929,,,,0.1818074307
1741759299043982316,-0.929,,,,0.1825778011
1741759299051686020,-0.932,,,,0.1833481715
1741759299059389724,-0.927,,,,0.1841185419
1741759299067093428,-0.917,,,,0.1848889123
1741759299074797132,-0.915,,,,0.1856592827
1741759299082500836,-0.917,,624.0,,0.1864296531
1741759299090204540,-0.907,,,,0.1872000235
1741759299097908244,-0.902,,,,0.1879703939
1741759299105611948,-0.895,,,,0.1887407643
1741759299113315652,-0.888,,,,0.1895111347
1741759299121019356,-0.885,,,,0.1902815051
1741759299128723060,-0.883,,,,0.1910518755
1741759299136426764,-0.88,,,,0.1918222459
1741759299144130468,-0.88,,,,0.1925926163
1741759299151834172,-0.885,,,,0.1933629867
1741759299159537876,-0.89,,,,0.1941333571
1741759299167241580,-0.89,,,,0.1949037275
1741759299174945284,-0.89,,,,0.1956740979
1741759299182648988,-0.893,,,,0.1964444683
1741759299190352692,-0.893,,,,0.1972148387
1741759299198056396,-0.89,,,,0.1979852091
1741759299205760100,-0.893,,,,0.1987555795
1741759299213463804,-0.895,,,,0.1995259499
1741759299221167508,-0.898,,,,0.2002963203
1741759299228871212,-0.902,,,,0.2010666907
1741759299236574916,-0.907,,,,0.2018370611
1741759299244278620,-0.902,,,,0.2026074315
1741759299251982324,-0.898,,,,0.2033778019
1741759299259686028,-0.895,,,,0.2041481723
1741759299267389732,-0.898,,,,0.2049185427
1741759299275093436,-0.9,,,,0.2056889131
1741759299282797140,-0.898,,,,0.2064592835
1741759299290500844,-0.89,,,,0.2072296539
1741759299298204548,-0.89,,,,0.2080000243
1741759299305908252,-0.89,,,,0.2087703947
1741759299313611956,-0.89,,,,0.2095407651
1741759299321315660,-0.888,,,,0.2103111355
1741759299329019364,-0.885,,,,0.2110815059
1741759299336723068,-0.888,,,,0.2118518763
1741759299344426772,-0.89,,,,0.2126222467
1741759299352130476,-0.893,,,,0.2133926171
1741759299359834180,-0.898,,,,0.2141629875
1741759299367537884,-0.905,,,,0.2149333579
1741759299375241588,-0.915,,,,0.2157037283
1741759299382945292,-0.912,,,,0.2164740987
1741759299390648996,-0.907,,,,0.2172444691
1741759299398352700,-0.912,,,,0.2180148395
1741759299406056404,-0.907,,,,0.2187852099
1741759299413760108,-0.898,,,,0.2195555803
1741759299421463812,-0.9,,,,0.2203259507
1741759299429167516,-0.902,,,,0.2210963211
1741759299436871220,-0.902,,,,0.2218666915
1741759299444574924,-0.9,,,,0.2226370619
1741759299452278628,-0.905,,,,0.2234074323
1741759299459982332,-0.907,,,,0.2241778027
1741759299467686089,-0.907,,,,0.2249481784
1741759299475389793,-0.91,,,,0.2257185488
1741759299483093497,-0.915,,,,0.2264889192
1741759299490797201,-0.952,,,,0.2272592896
1741759299498500905,-1.064,,,,0.22802966
1741759299506204609,-1.172,,,,0.2288000304
1741759299513908313,-1.003,,,,0.2295704008
1741759299521612017,-0.417,,,,0.2303407712
1741759299529315721,-0.009,,,,0.2311111416
1741759299537019425,-0.368,,,,0.231881512
1741759299544723129,-0.812,,,,0.2326518824
1741759299552426833,-0.785,,,,0.2334222528
1741759299560130537,-0.861,,,,0.2341926232
1741759299567834241,-1.126,,,,0.2349629936
1741759299575537945,-1.143,,,,0.235733364
1741759299583241649,-1.047,,,,0.2365037344
1741759299590945353,-1.069,,,,0.2372741048
1741759299598649057,-1.079,,,,0.2380444752
1741759299606352761,-1.035,,,,0.2388148456
1741759299614056465,-1.03,,,,0.239585216
1741759299621760169,-1.032,,,,0.2403555864
1741759299629463873,-1.02,,,,0.2411259568
1741759299637167577,-1.02,,,,0.2418963272
1741759299644871281,-1.023,,,,0.2426666976
1741759299652574985,-1.015,,,,0.243437068
1741759299660278689,-1.013,,,,0.2442074384
1741759299667982393,-1.018,,,,0.2449778088
1741759299675686097,-1.013,,,,0.2457481792
1741759299683389801,-1.005,,,,0.2465185496
1741759299691093505,-1.005,,,,0.24728892
1741759299698797209,-1.003,,621.0,,0.2480592904
1741759299706500913,-0.993,,,,0.2488296608
1741759299714204617,-0.988,,,,0.2496000312
1741759299721908321,-0.983,,,,0.2503704016
1741759299729612025,-0.974,,,,0.251140772
1741759299737315729,-0.964,,,,0.2519111424
1741759299745019433,-0.956,,,,0.2526815128
1741759299752723137,-0.949,,,,0.2534518832
1741759299760426841,-0.939,,,,0.2542222536
1741759299768130545,-0.934,,,,0.254992624
1741759299775834249,-0.937,,,,0.2557629944
1741759299783537953,-0.939,,,,0.2565333648
1741759299791241657,-0.939,,,,0.2573037352
1741759299798945361,-0.944,,,,0.2580741056
1741759299806649065,-0.947,,,,0.258844476
1741759299814352769,-0.947,,,,0.2596148464
1741759299822056473,-0.944,,,,0.2603852168
1741759299829760177,-0.939,,,,0.2611555872
1741759299837463881,-0.939,,,,0.2619259576
1741759299845167585,-0.934,,,,0.262696328
1741759299852871289,-0.929,,,,0.2634666984
1741759299860574993,-0.929,,,,0.2642370688
1741759299868278697,-0.925,,,,0.2650074392
1741759299875982401,-0.922,,,,0.2657778096
1741759299883686105,-0.915,,,,0.26654818
1741759299891389809,-0.912,,,,0.2673185504
1741759299899093513,-0.915,,,,0.2680889208
1741759299906797217,-0.91,,,,0.2688592912
1741759299914500921,-0.905,,,,0.2696296616
1741759299922204625,-0.902,,,,0.270400032
1741759299929908329,-0.902,,,,0.2711704024
1741759299937612033,-0.9,,,,0.2719407728
1741759299945315737,-0.898,,,,0.2727111432
1741759299953019441,-0.895,,,,0.2734815136
1741759299960723145,-0.893,,,,0.274251884
1741759299968426849,-0.89,,,,0.2750222544
1741759299976130553,-0.89,,,,0.2757926248
1741759299983834257,-0.885,,,,0.2765629952
1741759299991537961,-0.885,,,,0.2773333656
1741759299999241665,-0.885,,,,0.278103736
1741759300006945369,-0.888,,,,0.2788741064
1741759300014649073,-0.893,,,,0.2796444768
1741759300022352777,-0.893,,,,0.2804148472
1741759300030056534,-0.885,99.0,,,0.2811852229
1741759300037759820,-0.88,,,,0.2819555515
1741759300045463106,-0.878,,,,0.2827258801
1741759300053166392,-0.868,,,,0.2834962087
1741759300060869678,-0.856,,,,0.2842665373
1741759300068572964,-0.853,,,,0.2850368659
1741759300076276250,-0.856,,,,0.2858071945
1741759300083979536,-0.851,,,,0.2865775231
1741759300091682822,-0.841,,,,0.2873478517
1741759300099386108,-0.841,,,,0.2881181803
1741759300107089394,-0.839,,,,0.2888885089
1741759300114792680,-0.836,,,,0.2896588375
1741759300122495966,-0.8310000000000001,,,,0.2904291661
1741759300130199252,-0.836,,,,0.2911994947
1741759300137902538,-0.893,,,,0.2919698233
1741759300145605824,-1.013,,,,0.2927401519
1741759300153309110,-1.074,,,,0.2935104805
1741759300161012396,-0.753,,,,0.2942808091
1741759300168715682,-0.1,,,,0.2950511377
1741759300176418968,0.066,,,,0.2958214663
1741759300184122254,-0.451,,,,0.2965917949
1741759300191825540,-0.738,,,,0.2973621235
1741759300199528826,-0.669,,,,0.2981324521
1741759300207232112,-0.851,,,,0.2989027807
1741759300214935398,-1.074,,,,0.2996731093
1741759300222638684,-1.018,,,,0.3004434379
1741759300230341970,-0.956,,,,0.3012137665
1741759300238045256,-0.993,,,,0.3019840951
1741759300245748542,-0.976,,,,0.3027544237
1741759300253451828,-0.939,,,,0.3035247523
1741759300261155114,-0.944,,,,0.3042950809
1741759300268858400,-0.942,,,,0.3050654095
1741759300276561686,-0.927,,,,0.3058357381
1741759300284264972,-0.925,,,,0.3066060667
1741759300291968258,-0.925,,,,0.3073763953
1741759300299671544,-0.917,,,,0.3081467239
1741759300307374830,-0.91,,,,0.3089170525
1741759300315078116,-0.91,,,,0.3096873811
1741759300322781402,-0.905,,624.0,,0.3104577097
1741759300330484688,-0.898,,,,0.3112280383
1741759300338187974,-0.893,,,,0.3119983669
1741759300345891260,-0.888,,,,0.3127686955
1741759300353594546,-0.878,,,,0.3135390241
1741759300361297832,-0.871,,,,0.3143093527
1741759300369001118,-0.858,,,,0.3150796813
1741759300376704404,-0.846,,,,0.3158500099
1741759300384407690,-0.834,,,,0.3166203385
1741759300392110976,-0.8240000000000001,,,,0.3173906671
1741759300399814262,-0.8170000000000001,,,,0.3181609957
1741759300407517548,-0.807,,,,0.3189313243
1741759300415220834,-0.804,,,,0.3197016529
1741759300422924120,-0.807,,,,0.3204719815
1741759300430627406,-0.807,,,,0.3212423101
1741759300438330692,-0.809,,,,0.3220126387
1741759300446033978,-0.812,,,,0.3227829673
1741759300453737264,-0.8190000000000001,,,,0.3235532959
1741759300461440550,-0.8210000000000001,,,,0.3243236245
1741759300469143836,-0.8210000000000001,,,,0.3250939531
1741759300476847122,-0.8240000000000001,,,,0.3258642817
1741759300484550408,-0.8210000000000001,,,,0.3266346103
1741759300492253694,-0.8240000000000001,,,,0.3274049389
1741759300499956980,-0.8240000000000001,,,,0.3281752675
1741759300507660266,-0.8210000000000001,,,,0.3289455961
1741759300515363552,-0.8210000000000001,,,,0.3297159247
1741759300523066838,-0.8210000000000001,,,,0.3304862533
1741759300530770124,-0.8170000000000001,,,,0.3312565819
1741759300538473410,-0.8140000000000001,,,,0.3320269105
1741759300546176696,-0.812,,,,0.3327972391
1741759300553879982,-0.812,,,,0.3335675677
1741759300561583268,-0.807,,,,0.3343378963
1741759300569286554,-0.804,,,,0.3351082249
1741759300576989840,-0.802,,,,0.3358785535
1741759300584693126,-0.799,,,,0.3366488821
1741759300592396457,-0.799,,,,0.3374192152
1741759300600100161,-0.799,,,,0.3381895856
1741759300607803865,-0.797,,,,0.338959956
1741759300615507569,-0.799,,,,0.3397303264
1741759300623211273,-0.797,,,,0.3405006968
1741759300630914977,-0.792,,,,0.3412710672
1741759300638618681,-0.792,,,,0.3420414376
1741759300646322385,-0.797,,,,0.342811808
1741759300654026089,-0.799,,,,0.3435821784
1741759300661729793,-0.799,,,,0.3443525488
1741759300669433497,-0.809,,,,0.3451229192
1741759300677137201,-0.8190000000000001,,,,0.3458932896
1741759300684840905,-0.812,,,,0.34666366
1741759300692544609,-0.804,,,,0.3474340304
1741759300700248313,-0.804,,,,0.3482044008
1741759300707952017,-0.802,,,,0.3489747712
1741759300715655721,-0.792,,,,0.3497451416
1741759300723359425,-0.785,,,,0.350515512
1741759300731063129,-0.787,,,,0.3512858824
1741759300738766833,-0.792,,,,0.3520562528
1741759300746470537,-0.79,,,,0.3528266232
1741759300754174241,-0.787,,,,0.3535969936
1741759300761877945,-0.787,,,,0.354367364
1741759300769581649,-0.79,,,,0.3551377344
1741759300777285353,-0.792,,,,0.3559081048
1741759300784989057,-0.787,,,,0.3566784752
1741759300792692761,-0.804,,,,0.3574488456
1741759300800396465,-0.883,,,,0.358219216
1741759300808100169,-1.018,,,,0.3589895864
1741759300815803873,-0.998,,,,0.3597599568
1741759300823507577,-0.517,,,,0.3605303272
1741759300831211281,0.12,,,,0.3613006976
1741759300838914985,0.053,,,,0.362071068
1741759300846618689,-0.493,,,,0.3628414384
1741759300854322393,-0.664,,,,0.3636118088
1741759300862026097,-0.684,,,,0.3643821792
1741759300869729801,-0.929,,,,0.3651525496
1741759300877433505,-1.047,,,,0.36592292
1741759300885137209,-0.952,,,,0.3666932904
1741759300892840913,-0.927,,,,0.3674636608
1741759300900544617,-0.949,,,,0.3682340312
1741759300908248321,-0.917,,,,0.3690044016
1741759300915952025,-0.898,,,,0.369774772
1741759300923655729,-0.9,,,,0.3705451424
1741759300931359433,-0.895,,,,0.3713155128
1741759300939063137,-0.885,,,,0.3720858832
1741759300946766841,-0.883,,,,0.3728562536
1741759300954470545,-0.88,,,,0.373626624
1741759300962174249,-0.873,,635.0,,0.3743969944
1741759300969877953,-0.871,,,,0.3751673648
1741759300977581657,-0.871,,,,0.3759377352
1741759300985285361,-0.866,,,,0.3767081056
1741759300992989065,-0.861,,,,0.377478476
1741759301000692769,-0.856,,,,0.3782488464
1741759301008396473,-0.853,,,,0.3790192168
1741759301016100177,-0.844,,,,0.3797895872
1741759301023803881,-0.834,,,,0.3805599576
1741759301031507585,-0.8260000000000001,,,,0.381330328
1741759301039211289,-0.8190000000000001,,,,0.3821006984
1741759301046914993,-0.807,,,,0.3828710688
1741759301054618697,-0.799,,,,0.3836414392
1741759301062322401,-0.797,,,,0.3844118096
1741759301070026105,-0.794,,,,0.38518218
1741759301077729809,-0.787,,,,0.3859525504
1741759301085433513,-0.782,,,,0.3867229208
1741759301093137217,-0.787,,,,0.3874932912
1741759301100840921,-0.79,,,,0.3882636616
1741759301108544625,-0.787,,,,0.389034032
1741759301116248329,-0.79,,,,0.3898044024
1741759301123952033,-0.794,,,,0.3905747728
1741759301131655737,-0.794,,,,0.3913451432
1741759301139359441,-0.794,,,,0.3921155136
1741759301147063145,-0.797,,,,0.392885884
1741759301154766906,-0.799,98.0,,,0.3936562601
1741759301162470471,-0.799,,,,0.3944266166
1741759301170174036,-0.797,,,,0.3951969731
1741759301177877601,-0.799,,,,0.3959673296
1741759301185581166,-0.797,,,,0.3967376861
1741759301193284731,-0.794,,,,0.3975080426
1741759301200988296,-0.792,,,,0.3982783991
1741759301208691861,-0.79,,,,0.3990487556
1741759301216395426,-0.79,,,,0.3998191121
1741759301224098991,-0.785,,,,0.4005894686
1741759301231802556,-0.78,,,,0.4013598251
1741759301239506121,-0.775,,,,0.4021301816
1741759301247209686,-0.772,,,,0.4029005381
1741759301254913251,-0.77,,,,0.4036708946
1741759301262616816,-0.767,,,,0.4044412511
1741759301270320381,-0.767,,,,0.4052116076
1741759301278023946,-0.767,,,,0.4059819641
1741759301285727511,-0.767,,,,0.4067523206
1741759301293431076,-0.767,,,,0.4075226771
1741759301301134641,-0.77,,,,0.4082930336
1741759301308838206,-0.77,,,,0.4090633901
1741759301316541771,-0.77,,,,0.4098337466
1741759301324245336,-0.772,,,,0.4106041031
1741759301331948901,-0.78,,,,0.4113744596
1741759301339652466,-0.787,,,,0.4121448161
1741759301347356031,-0.792,,,,0.4129151726
1741759301355059596,-0.792,,,,0.4136855291
1741759301362763161,-0.785,,,,0.4144558856
1741759301370466726,-0.782,,,,0.4152262421
1741759301378170291,-0.782,,,,0.4159965986
1741759301385873856,-0.775,,,,0.4167669551
1741759301393577421,-0.765,,,,0.4175373116
1741759301401280986,-0.767,,,,0.4183076681
1741759301408984551,-0.772,,,,0.4190780246
1741759301416688116,-0.77,,,,0.4198483811
1741759301424391681,-0.763,,,,0.4206187376
1741759301432095246,-0.765,,,,0.4213890941
1741759301439798811,-0.767,,,,0.4221594506
1741759301447502376,-0.765,,,,0.4229298071
1741759301455205941,-0.767,,,,0.4237001636
1741759301462909506,-0.78,,,,0.4244705201
1741759301470613071,-0.839,,,,0.4252408766
1741759301478316636,-0.966,,,,0.4260112331
1741759301486020201,-1.001,,,,0.4267815896
1741759301493723766,-0.606,,,,0.4275519461
1741759301501427331,0.056,,,,0.4283223026
1741759301509130896,0.12,,,,0.4290926591
1741759301516834461,-0.426,,,,0.4298630156
1741759301524538026,-0.655,,,,0.4306333721
1741759301532241591,-0.628,,,,0.4314037286
1741759301539945156,-0.851,,,,0.4321740851
1741759301547648721,-1.02,,,,0.4329444416
1741759301555352286,-0.937,,,,0.4337147981
1741759301563055851,-0.893,,,,0.4344851546
1741759301570759416,-0.929,,,,0.4352555111
1741759301578462981,-0.907,,,,0.4360258676
1741759301586166546,-0.878,,,,0.4367962241
1741759301593870111,-0.888,,632.0,,0.4375665806
1741759301601573676,-0.88,,,,0.4383369371
1741759301609277241,-0.868,,,,0.4391072936
1741759301616980806,-0.871,,,,0.4398776501
1741759301624684371,-0.868,,,,0.4406480066
1741759301632387936,-0.863,,,,0.4414183631
1741759301640091501,-0.858,,,,0.4421887196
1741759301647795066,-0.853,,,,0.4429590761
1741759301655498631,-0.851,,,,0.4437294326
1741759301663202196,-0.846,,,,0.4444997891
1741759301670905761,-0.844,,,,0.4452701456
1741759301678609326,-0.841,,,,0.4460405021
1741759301686312891,-0.8290000000000001,,,,0.4468108586
1741759301694016456,-0.8170000000000001,,,,0.4475812151
1741759301701720021,-0.802,,,,0.4483515716
1741759301709423586,-0.794,,,,0.4491219281
1741759301717127177,-0.785,,,,0.4498922872
1741759301724830603,-0.775,,,,0.4506626298
1741759301732534029,-0.76,,,,0.4514329724
1741759301740237455,-0.753,,,,0.452203315
1741759301747940881,-0.753,,,,0.4529736576
1741759301755644307,-0.76,,,,0.4537440002
1741759301763347733,-0.76,,,,0.4545143428
1741759301771051159,-0.755,,,,0.4552846854
1741759301778754585,-0.76,,,,0.456055028
1741759301786458011,-0.767,,,,0.4568253706
1741759301794161437,-0.763,,,,0.4575957132
1741759301801864863,-0.758,,,,0.4583660558
1741759301809568289,-0.775,,,,0.4591363984
1741759301817271715,-0.78,,,,0.459906741
1741759301824975141,-0.79,,,,0.4606770836
1741759301832678567,-0.812,,,,0.4614474262
1741759301840381993,-0.8140000000000001,,,,0.4622177688
1741759301848085419,-0.807,,,,0.4629881114
1741759301855788845,-0.807,,,,0.463758454
1741759301863492271,-0.804,,,,0.4645287966
1741759301871195697,-0.8210000000000001,,,,0.4652991392
1741759301878899123,-0.839,,,,0.4660694818
1741759301886602549,-0.834,,,,0.4668398244
1741759301894305975,-0.8260000000000001,,,,0.467610167
1741759301902009401,-0.8260000000000001,,,,0.4683805096
1741759301909712827,-0.8290000000000001,,,,0.4691508522
1741759301917416253,-0.834,,,,0.4699211948
1741759301925119679,-0.836,,,,0.4706915374
1741759301932823105,-0.839,,,,0.47146188
1741759301940526531,-0.839,,,,0.4722322226
1741759301948229957,-0.841,,,,0.4730025652
1741759301955933383,-0.846,,,,0.4737729078
1741759301963636809,-0.846,,,,0.4745432504
1741759301971340235,-0.846,,,,0.475313593
1741759301979043661,-0.846,,,,0.4760839356
1741759301986747087,-0.844,,,,0.4768542782
1741759301994450513,-0.856,,,,0.4776246208
1741759302002153939,-0.866,,,,0.4783949634
1741759302009857365,-0.863,,,,0.479165306
1741759302017560791,-0.868,,,,0.4799356486
1741759302025264217,-0.878,,,,0.4807059912
1741759302032967643,-0.883,,,,0.4814763338
1741759302040671069,-0.888,,,,0.4822466764
1741759302048374495,-0.89,,,,0.483017019
1741759302056077921,-0.885,,,,0.4837873616
1741759302063781347,-0.88,,,,0.4845577042
1741759302071484773,-0.885,,,,0.4853280468
1741759302079188199,-0.88,,,,0.4860983894
1741759302086891625,-0.875,,,,0.486868732
1741759302094595051,-0.883,,,,0.4876390746
1741759302102298477,-0.888,,,,0.4884094172
1741759302110001903,-0.885,,,,0.4891797598
1741759302117705329,-0.885,,,,0.4899501024
1741759302125408755,-0.893,,,,0.490720445
1741759302133112181,-0.9,,,,0.4914907876
1741759302140815607,-0.9,,,,0.4922611302
1741759302148519033,-0.902,,,,0.4930314728
1741759302156222459,-0.934,,,,0.4938018154
1741759302163925885,-1.035,,,,0.494572158
1741759302171629311,-1.158,,,,0.4953425006
1741759302179332737,-1.052,,,,0.4961128432
1741759302187036163,-0.51,,,,0.4968831858
1741759302194739589,-0.014,,,,0.4976535284
1741759302202443015,-0.26,,,,0.498423871
1741759302210146441,-0.753,,,,0.4991942136
1741759302217849867,-0.802,,,,0.4999645562
1741759302225553293,-0.856,,,,0.5007348988
1741759302233256719,-1.118,,639.0,,0.5015052414
1741759302240960145,-1.158,,,,0.502275584
1741759302248663571,-1.057,,,,0.5030459266
1741759302256366997,-1.079,,,,0.5038162692
1741759302264070423,-1.099,,,,0.5045866118
1741759302271773849,-1.055,,,,0.5053569544
1741759302279477278,-1.04,96.0,,,0.5061272973
1741759302287180982,-1.055,,,,0.5068976677
1741759302294884686,-1.052,,,,0.5076680381
1741759302302588390,-1.042,,,,0.5084384085
1741759302310292094,-1.04,,,,0.5092087789
1741759302317995798,-1.035,,,,0.5099791493
1741759302325699502,-1.03,,,,0.5107495197
1741759302333403206,-1.037,,,,0.5115198901
1741759302341106910,-1.04,,,,0.5122902605
1741759302348810614,-1.028,,,,0.5130606309
1741759302356514318,-1.025,,,,0.5138310013
1741759302364218022,-1.023,,,,0.5146013717
1741759302371921726,-1.013,,,,0.5153717421
1741759302379625430,-0.998,,,,0.5161421125
1741759302387329134,-0.991,,,,0.5169124829
1741759302395032838,-0.986,,,,0.5176828533
1741759302402736542,-0.976,,,,0.5184532237
1741759302410440246,-0.969,,,,0.5192235941
1741759302418143950,-0.964,,,,0.5199939645
1741759302425847654,-0.954,,,,0.5207643349
1741759302433551358,-0.954,,,,0.5215347053
1741759302441255062,-0.954,,,,0.5223050757
1741759302448958766,-0.949,,,,0.5230754461
1741759302456662470,-0.952,,,,0.5238458165
1741759302464366174,-0.961,,,,0.5246161869
1741759302472069878,-0.969,,,,0.5253865573
1741759302479773582,-0.969,,,,0.5261569277
1741759302487477286,-0.964,,,,0.5269272981
1741759302495180990,-0.961,,,,0.5276976685
1741759302502884694,-0.959,,,,0.5284680389
1741759302510588398,-0.964,,,,0.5292384093
1741759302518292102,-0.969,,,,0.5300087797
1741759302525995806,-0.966,,,,0.5307791501
1741759302533699510,-0.969,,,,0.5315495205
1741759302541403214,-0.971,,,,0.5323198909
1741759302549106918,-0.971,,,,0.5330902613
1741759302556810622,-0.971,,,,0.5338606317
1741759302564514326,-0.969,,,,0.5346310021
1741759302572218030,-0.966,,,,0.5354013725
1741759302579921734,-0.966,,,,0.5361717429
1741759302587625438,-0.964,,,,0.5369421133
1741759302595329142,-0.964,,,,0.5377124837
1741759302603032846,-0.969,,,,0.5384828541
1741759302610736550,-0.964,,,,0.5392532245
1741759302618440254,-0.954,,,,0.5400235949
1741759302626143958,-0.952,,,,0.5407939653
1741759302633847662,-0.956,,,,0.5415643357
1741759302641551366,-0.959,,,,0.5423347061
1741759302649255070,-0.959,,,,0.5431050765
1741759302656958774,-0.956,,,,0.5438754469
1741759302664662478,-0.956,,,,0.5446458173
1741759302672366182,-0.961,,,,0.5454161877
1741759302680069886,-0.964,,,,0.5461865581
1741759302687773590,-0.966,,,,0.5469569285
1741759302695477294,-0.971,,,,0.5477272989
1741759302703180998,-0.976,,,,0.5484976693
1741759302710884702,-0.971,,,,0.5492680397
1741759302718588406,-0.966,,,,0.5500384101
1741759302726292110,-0.976,,,,0.5508087805
1741759302733995814,-0.996,,,,0.5515791509
1741759302741699518,-1.001,,,,0.5523495213
1741759302749403222,-0.993,,,,0.5531198917
1741759302757106926,-0.991,,,,0.5538902621
1741759302764810630,-0.986,,,,0.5546606325
1741759302772514334,-0.981,,,,0.5554310029
1741759302780218038,-0.976,,,,0.5562013733
1741759302787921742,-0.974,,,,0.5569717437
1741759302795625446,-0.971,,,,0.5577421141
1741759302803329150,-0.976,,,,0.5585124845
1741759302811032854,-0.978,,,,0.5592828549
1741759302818736558,-0.971,,,,0.5600532253
1741759302826440262,-0.969,,,,0.5608235957
1741759302834143966,-0.974,,,,0.5615939661
1741759302841847723,-0.981,,,,0.5623643418
1741759302849551079,-0.986,,,,0.5631346774
1741759302857254435,-0.986,,,,0.563905013
1741759302864957791,-1.005,,,,0.5646753486
1741759302872661147,-1.096,,643.0,,0.5654456842
1741759302880364503,-1.209,,,,0.5662160198
1741759302888067859,-1.113,,,,0.5669863554
1741759302895771215,-0.608,,,,0.567756691
1741759302903474571,-0.122,,,,0.5685270266
1741759302911177927,-0.382,,,,0.5692973622
1741759302918881283,-0.9,,,,0.5700676978
1741759302926584639,-0.863,,,,0.5708380334
1741759302934287995,-0.8190000000000001,,,,0.571608369
1741759302941991351,-1.116,,,,0.5723787046
1741759302949694707,-1.199,,,,0.5731490402
1741759302957398063,-1.086,,,,0.5739193758
1741759302965101419,-1.099,,,,0.5746897114
1741759302972804775,-1.128,,,,0.575460047
1741759302980508131,-1.082,,,,0.5762303826
1741759302988211487,-1.072,,,,0.5770007182
1741759302995914843,-1.084,,,,0.5777710538
1741759303003618199,-1.069,,,,0.5785413894
1741759303011321555,-1.067,,,,0.579311725
1741759303019024911,-1.079,,,,0.5800820606
1741759303026728267,-1.069,,,,0.5808523962
1741759303034431623,-1.052,,,,0.5816227318
1741759303042134979,-1.052,,,,0.5823930674
1741759303049838335,-1.057,,,,0.583163403
1741759303057541691,-1.057,,,,0.5839337386
1741759303065245047,-1.052,,,,0.5847040742
1741759303072948403,-1.047,,,,0.5854744098
1741759303080651759,-1.045,,,,0.5862447454
1741759303088355115,-1.032,,,,0.587015081
1741759303096058471,-1.02,,,,0.5877854166
1741759303103761827,-1.018,,,,0.5885557522
1741759303111465183,-1.01,,,,0.5893260878
1741759303119168539,-0.991,,,,0.5900964234
1741759303126871895,-0.986,,,,0.590866759
1741759303134575251,-0.991,,,,0.5916370946
1741759303142278607,-0.983,,,,0.5924074302
1741759303149981963,-0.978,,,,0.5931777658
1741759303157685319,-0.986,,,,0.5939481014
1741759303165388675,-0.998,,,,0.594718437
1741759303173092031,-1.003,,,,0.5954887726
1741759303180795387,-1.003,,,,0.5962591082
1741759303188498743,-1.01,,,,0.5970294438
1741759303196202099,-1.018,,,,0.5977997794
1741759303203905455,-1.023,,,,0.598570115
1741759303211608811,-1.02,,,,0.5993404506
1741759303219312167,-1.018,,,,0.6001107862
1741759303227015523,-1.023,,,,0.6008811218
1741759303234718879,-1.025,,,,0.6016514574
1741759303242422235,-1.018,,,,0.602421793
1741759303250125591,-1.02,,,,0.6031921286
1741759303257828947,-1.025,,,,0.6039624642
1741759303265532303,-1.02,,,,0.6047327998
1741759303273235659,-1.018,,,,0.6055031354
1741759303280939015,-1.02,,,,0.606273471
1741759303288642371,-1.025,,,,0.6070438066
1741759303296345727,-1.02,,,,0.6078141422
1741759303304049083,-1.01,,,,0.6085844778
1741759303311752439,-1.01,,,,0.6093548134
1741759303319455795,-1.01,,,,0.610125149
1741759303327159151,-1.008,,,,0.6108954846
1741759303334862507,-1.008,,,,0.6116658202
1741759303342565863,-1.005,,,,0.6124361558
1741759303350269219,-0.998,,,,0.6132064914
1741759303357972575,-0.996,,,,0.613976827
1741759303365675931,-1.001,,,,0.6147471626
1741759303373379287,-1.001,,,,0.6155174982
1741759303381082643,-0.986,,,,0.6162878338
1741759303388785999,-0.983,,,,0.6170581694
1741759303396489355,-0.991,,,,0.617828505
1741759303404192733,-0.983,96.0,,,0.6185988428
1741759303411896368,-0.976,,,,0.6193692063
1741759303419600003,-0.983,,,,0.6201395698
1741759303427303638,-0.991,,,,0.6209099333
1741759303435007273,-0.991,,,,0.6216802968
1741759303442710908,-0.988,,,,0.6224506603
1741759303450414543,-0.988,,,,0.6232210238
1741759303458118178,-0.981,,,,0.6239913873
1741759303465821813,-0.974,,,,0.6247617508
1741759303473525448,-0.974,,,,0.6255321143
1741759303481229083,-0.964,,,,0.6263024778
1741759303488932718,-0.956,,,,0.6270728413
1741759303496636353,-0.959,,,,0.6278432048
1741759303504339988,-0.964,,,,0.6286135683
1741759303512043623,-0.961,,,,0.6293839318
1741759303519747258,-0.959,,646.0,,0.6301542953
1741759303527450893,-0.959,,,,0.6309246588
1741759303535154528,-0.959,,,,0.6316950223
1741759303542858163,-0.956,,,,0.6324653858
1741759303550561798,-0.959,,,,0.6332357493
1741759303558265433,-0.969,,,,0.6340061128
1741759303565969068,-1.042,,,,0.6347764763
1741759303573672703,-1.172,,,,0.6355468398
1741759303581376338,-1.16,,,,0.6363172033
1741759303589079973,-0.726,,,,0.6370875668
1741759303596783608,-0.112,,,,0.6378579303
1741759303604487243,-0.176,,,,0.6386282938
1741759303612190878,-0.763,,,,0.6393986573
1741759303619894513,-0.873,,,,0.6401690208
1741759303627598148,-0.758,,,,0.6409393843
1741759303635301783,-1.01,,,,0.6417097478
1741759303643005418,-1.19,,,,0.6424801113
1741759303650709053,-1.089,,,,0.6432504748
1741759303658412688,-1.064,,,,0.6440208383
1741759303666116323,-1.104,,,,0.6447912018
1741759303673819958,-1.062,,,,0.6455615653
1741759303681523593,-1.037,,,,0.6463319288
1741759303689227228,-1.052,,,,0.6471022923
1741759303696930863,-1.047,,,,0.6478726558
1741759303704634498,-1.035,,,,0.6486430193
1741759303712338133,-1.04,,,,0.6494133828
1741759303720041768,-1.037,,,,0.6501837463
1741759303727745403,-1.023,,,,0.6509541098
1741759303735449038,-1.015,,,,0.6517244733
1741759303743152673,-1.015,,,,0.6524948368
1741759303750856308,-1.018,,,,0.6532652003
1741759303758559943,-1.013,,,,0.6540355638
1741759303766263578,-1.001,,,,0.6548059273
1741759303773967213,-0.993,,,,0.6555762908
1741759303781670848,-0.983,,,,0.6563466543
1741759303789374483,-0.976,,,,0.6571170178
1741759303797078118,-0.964,,,,0.6578873813
1741759303804781753,-0.944,,,,0.6586577448
1741759303812485388,-0.937,,,,0.6594281083
1741759303820189023,-0.929,,,,0.6601984718
1741759303827892658,-0.91,,,,0.6609688353
1741759303835596293,-0.893,,,,0.6617391988
1741759303843299928,-0.893,,,,0.6625095623
1741759303851003563,-0.898,,,,0.6632799258
1741759303858707198,-0.895,,,,0.6640502893
1741759303866410833,-0.895,,,,0.6648206528
1741759303874114468,-0.898,,,,0.6655910163
1741759303881818103,-0.895,,,,0.6663613798
1741759303889521738,-0.905,,,,0.6671317433
1741759303897225373,-0.91,,,,0.6679021068
1741759303904929008,-0.902,,,,0.6686724703
1741759303912632643,-0.9,,,,0.6694428338
1741759303920336278,-0.9,,,,0.6702131973
1741759303928039913,-0.902,,,,0.6709835608
1741759303935743548,-0.905,,,,0.6717539243
1741759303943447183,-0.902,,,,0.6725242878
1741759303951150818,-0.9,,,,0.6732946513
1741759303958854453,-0.895,,,,0.6740650148
1741759303966558095,-0.895,95.0,,,0.674835379
1741759303974261730,-0.898,,,,0.6756057425
1741759303981965365,-0.89,,,,0.676376106
1741759303989669000,-0.888,,,,0.6771464695
1741759303997372635,-0.893,,,,0.677916833
1741759304005076270,-0.888,,,,0.6786871965
1741759304012779905,-0.88,,,,0.67945756
1741759304020483540,-0.878,,,,0.6802279235
1741759304028187175,-0.875,,,,0.680998287
1741759304035890810,-0.871,,,,0.6817686505
1741759304043594445,-0.868,,,,0.682539014
1741759304051298080,-0.871,,,,0.6833093775
1741759304059001715,-0.868,,,,0.684079741
1741759304066705350,-0.863,,,,0.6848501045
1741759304074408985,-0.863,,,,0.685620468
1741759304082112620,-0.856,,,,0.6863908315
1741759304089816255,-0.851,,,,0.687161195
1741759304097519890,-0.853,,,,0.6879315585
1741759304105223525,-0.851,,,,0.688701922
1741759304112927160,-0.846,,,,0.6894722855
1741759304120630795,-0.846,,,,0.690242649
1741759304128334430,-0.846,,,,0.6910130125
1741759304136038065,-0.848,,,,0.691783376
1741759304143741700,-0.848,,,,0.6925537395
1741759304151445335,-0.851,,,,0.693324103
1741759304159148970,-0.853,,,,0.6940944665
1741759304166852605,-0.861,,,,0.69486483
1741759304174556240,-0.861,,,,0.6956351935
1741759304182259875,-0.848,,660.0,,0.696405557
1741759304189963510,-0.841,,,,0.6971759205
1741759304197667145,-0.844,,,,0.697946284
1741759304205370780,-0.846,,,,0.6987166475
1741759304213074415,-0.841,,,,0.699487011
1741759304220778050,-0.836,,,,0.7002573745
1741759304228481685,-0.841,,,,0.701027738
1741759304236185320,-0.848,,,,0.7017981015
1741759304243888955,-0.846,,,,0.702568465
1741759304251592590,-0.839,,,,0.7033388285
1741759304259296225,-0.839,,,,0.704109192
1741759304266999860,-0.846,,,,0.7048795555
1741759304274703495,-0.848,,,,0.705649919
1741759304282407130,-0.851,,,,0.7064202825
1741759304290110765,-0.907,,,,0.707190646
1741759304297814400,-1.042,,,,0.7079610095
1741759304305518035,-1.101,,,,0.708731373
1741759304313221670,-0.743,,,,0.7095017365
1741759304320925305,-0.029,,,,0.7102721
1741759304328628940,0.166,,,,0.7110424635
1741759304336332575,-0.375,,,,0.711812827
1741759304344036210,-0.716,,,,0.7125831905
1741759304351739845,-0.6910000000000001,,,,0.713353554
1741759304359443480,-0.878,,,,0.7141239175
1741759304367147115,-1.084,,,,0.714894281
1741759304374850750,-1.018,,,,0.7156646445
1741759304382554385,-0.949,,,,0.716435008
1741759304390258020,-0.981,,,,0.7172053715
1741759304397961655,-0.964,,,,0.717975735
1741759304405665290,-0.925,,,,0.7187460985
1741759304413368925,-0.929,,,,0.719516462
1741759304421072560,-0.934,,,,0.7202868255
1741759304428776195,-0.92,,,,0.721057189
1741759304436479830,-0.915,,,,0.7218275525
1741759304444183465,-0.92,,,,0.722597916
1741759304451887100,-0.917,,,,0.7233682795
1741759304459590735,-0.91,,,,0.724138643
1741759304467294370,-0.91,,,,0.7249090065
1741759304474998005,-0.915,,,,0.72567937
1741759304482701640,-0.912,,,,0.7264497335
1741759304490405275,-0.907,,,,0.727220097
1741759304498108910,-0.91,,,,0.7279904605
1741759304505812545,-0.905,,,,0.728760824
1741759304513516180,-0.895,,,,0.7295311875
1741759304521219815,-0.885,,,,0.730301551
1741759304528923453,-0.873,,,,0.7310719148
1741759304536626809,-0.863,,,,0.7318422504
1741759304544330165,-0.853,,,,0.732612586
1741759304552033521,-0.846,,,,0.7333829216
1741759304559736877,-0.836,,,,0.7341532572
1741759304567440233,-0.8290000000000001,,,,0.7349235928
1741759304575143589,-0.8210000000000001,,,,0.7356939284
1741759304582846945,-0.8190000000000001,,,,0.736464264
1741759304590550301,-0.8140000000000001,,,,0.7372345996
1741759304598253657,-0.804,,,,0.7380049352
1741759304605957013,-0.804,,,,0.7387752708
1741759304613660369,-0.807,,,,0.7395456064
1741759304621363725,-0.799,,,,0.740315942
1741759304629067081,-0.799,,,,0.7410862776
1741759304636770437,-0.812,,,,0.7418566132
1741759304644473793,-0.812,,,,0.7426269488
1741759304652177149,-0.807,,,,0.7433972844
1741759304659880505,-0.809,,,,0.74416762
1741759304667583861,-0.8170000000000001,,,,0.7449379556
1741759304675287217,-0.8210000000000001,,,,0.7457082912
1741759304682990573,-0.8240000000000001,,,,0.7464786268
1741759304690693929,-0.8260000000000001,,,,0.7472489624
1741759304698397285,-0.8290000000000001,,,,0.748019298
1741759304706100641,-0.8290000000000001,,,,0.7487896336
1741759304713803997,-0.8240000000000001,,,,0.7495599692
1741759304721507353,-0.8240000000000001,,,,0.7503303048
1741759304729210709,-0.8240000000000001,,,,0.7511006404
1741759304736914065,-0.8190000000000001,,,,0.751870976
1741759304744617421,-0.8140000000000001,,,,0.7526413116
1741759304752320777,-0.8170000000000001,,,,0.7534116472
1741759304760024133,-0.812,,,,0.7541819828
1741759304767727489,-0.804,,,,0.7549523184
1741759304775430845,-0.799,,,,0.755722654
1741759304783134201,-0.794,,,,0.7564929896
1741759304790837557,-0.794,,,,0.7572633252
1741759304798540913,-0.797,,,,0.7580336608
1741759304806244269,-0.797,,,,0.7588039964
1741759304813947625,-0.787,,,,0.759574332
1741759304821650981,-0.78,,,,0.7603446676
1741759304829354337,-0.782,,,,0.7611150032
1741759304837057693,-0.785,,,,0.7618853388
1741759304844761049,-0.782,,,,0.7626556744
1741759304852464405,-0.785,,671.0,,0.76342601
1741759304860167761,-0.785,,,,0.7641963456
1741759304867871117,-0.785,,,,0.7649666812
1741759304875574473,-0.787,,,,0.7657370168
1741759304883277829,-0.79,,,,0.7665073524
1741759304890981185,-0.79,,,,0.767277688
1741759304898684541,-0.797,,,,0.7680480236
1741759304906387897,-0.809,,,,0.7688183592
1741759304914091253,-0.807,,,,0.7695886948
1741759304921794609,-0.797,,,,0.7703590304
1741759304929497965,-0.79,,,,0.771129366
1741759304937201321,-0.787,,,,0.7718997016
1741759304944904677,-0.787,,,,0.7726700372
1741759304952608033,-0.785,,,,0.7734403728
1741759304960311389,-0.782,,,,0.7742107084
1741759304968014745,-0.782,,,,0.774981044
1741759304975718101,-0.787,,,,0.7757513796
1741759304983421457,-0.787,,,,0.7765217152
1741759304991124813,-0.782,,,,0.7772920508
1741759304998828169,-0.78,,,,0.7780623864
1741759305006531525,-0.782,,,,0.778832722
1741759305014234881,-0.785,,,,0.7796030576
1741759305021938237,-0.787,,,,0.7803733932
1741759305029641593,-0.812,,,,0.7811437288
1741759305037344949,-0.917,,,,0.7819140644
1741759305045048305,-1.045,,,,0.7826844
1741759305052751661,-0.89,,,,0.7834547356
1741759305060455017,-0.257,,,,0.7842250712
1741759305068158373,0.242,,,,0.7849954068
1741759305075861729,-0.073,,,,0.7857657424
1741759305083565085,-0.588,,,,0.786536078
1741759305091268467,-0.65,92.0,,,0.7873064162
1741759305098971962,-0.733,,,,0.7880767657
1741759305106675457,-0.991,,,,0.7888471152
1741759305114378952,-1.015,,,,0.7896174647
1741759305122082447,-0.92,,,,0.7903878142
1741759305129785942,-0.942,,,,0.7911581637
1741759305137489437,-0.952,,,,0.7919285132
1741759305145192932,-0.91,,,,0.7926988627
1741759305152896427,-0.9,,,,0.7934692122
1741759305160599922,-0.9,,,,0.7942395617
1741759305168303417,-0.888,,,,0.7950099112
1741759305176006912,-0.888,,,,0.7957802607
1741759305183710407,-0.89,,,,0.7965506102
1741759305191413902,-0.883,,,,0.7973209597
1741759305199117397,-0.883,,,,0.7980913092
1741759305206820892,-0.885,,,,0.7988616587
1741759305214524387,-0.883,,,,0.7996320082
1741759305222227882,-0.875,,,,0.8004023577
1741759305229931377,-0.875,,,,0.8011727072
1741759305237634872,-0.875,,,,0.8019430567
1741759305245338367,-0.866,,,,0.8027134062
1741759305253041862,-0.856,,,,0.8034837557
1741759305260745357,-0.848,,,,0.8042541052
1741759305268448852,-0.844,,,,0.8050244547
1741759305276152347,-0.8310000000000001,,,,0.8057948042
1741759305283855842,-0.8240000000000001,,,,0.8065651537
1741759305291559337,-0.8190000000000001,,,,0.8073355032
1741759305299262832,-0.807,,,,0.8081058527
1741759305306966327,-0.797,,,,0.8088762022
1741759305314669822,-0.79,,,,0.8096465517
1741759305322373317,-0.785,,,,0.8104169012
1741759305330076812,-0.78,,,,0.8111872507
1741759305337780307,-0.775,,,,0.8119576002
1741759305345483802,-0.772,,,,0.8127279497
1741759305353187297,-0.775,,,,0.8134982992
1741759305360890792,-0.772,,,,0.8142686487
1741759305368594287,-0.772,,,,0.8150389982
1741759305376297782,-0.777,,,,0.8158093477
1741759305384001277,-0.78,,,,0.8165796972
1741759305391704772,-0.78,,,,0.8173500467
1741759305399408267,-0.782,,,,0.8181203962
1741759305407111762,-0.787,,,,0.8188907457
1741759305414815257,-0.787,,,,0.8196610952
1741759305422518752,-0.792,,,,0.8204314447
1741759305430222247,-0.797,,,,0.8212017942
1741759305437925742,-0.792,,,,0.8219721437
1741759305445629237,-0.79,,,,0.8227424932
1741759305453332732,-0.792,,,,0.8235128427
1741759305461036227,-0.79,,,,0.8242831922
1741759305468739722,-0.785,,,,0.8250535417
1741759305476443217,-0.785,,,,0.8258238912
1741759305484146712,-0.785,,,,0.8265942407
1741759305491850207,-0.782,,,,0.8273645902
1741759305499553702,-0.78,,,,0.8281349397
1741759305507257197,-0.775,,,,0.8289052892
1741759305514960692,-0.767,,,,0.8296756387
1741759305522664187,-0.765,,,,0.8304459882
1741759305530367682,-0.767,,,,0.8312163377
1741759305538071177,-0.765,,690.0,,0.8319866872
1741759305545774672,-0.763,,,,0.8327570367
1741759305553478167,-0.76,,,,0.8335273862
1741759305561181662,-0.755,,,,0.8342977357
1741759305568885157,-0.76,,,,0.8350680852
1741759305576588652,-0.76,,,,0.8358384347
1741759305584292147,-0.763,,,,0.8366087842
1741759305591995642,-0.767,,,,0.8373791337
1741759305599699137,-0.77,,,,0.8381494832
1741759305607402632,-0.767,,,,0.8389198327
1741759305615106127,-0.763,,,,0.8396901822
1741759305622809622,-0.765,,,,0.8404605317
1741759305630513117,-0.772,,,,0.8412308812
1741759305638216612,-0.772,,,,0.8420012307
1741759305645920107,-0.777,,,,0.8427715802
1741759305653623651,-0.79,,,,0.8435419346
1741759305661327286,-0.79,,,,0.8443122981
1741759305669030921,-0.777,,,,0.8450826616
1741759305676734556,-0.772,,,,0.8458530251
1741759305684438191,-0.777,,,,0.8466233886
1741759305692141826,-0.772,,,,0.8473937521
1741759305699845461,-0.765,,,,0.8481641156
1741759305707549096,-0.76,,,,0.8489344791
1741759305715252731,-0.763,,,,0.8497048426
1741759305722956366,-0.767,,,,0.8504752061
1741759305730660001,-0.767,,,,0.8512455696
1741759305738363636,-0.765,,,,0.8520159331
1741759305746067271,-0.767,,,,0.8527862966
1741759305753770906,-0.772,,,,0.8535566601
1741759305761474541,-0.765,,,,0.8543270236
1741759305769178176,-0.763,,,,0.8550973871
1741759305776881811,-0.792,,,,0.8558677506
1741759305784585446,-0.895,,,,0.8566381141
1741759305792289081,-1.018,,,,0.8574084776
1741759305799992716,-0.905,,,,0.8581788411
1741759305807696351,-0.333,,,,0.8589492046
1741759305815399986,0.208,,,,0.8597195681
1741759305823103621,-0.026,,,,0.8604899316
1741759305830807256,-0.561,,,,0.8612602951
1741759305838510891,-0.645,,,,0.8620306586
1741759305846214526,-0.7010000000000001,,,,0.8628010221
1741759305853918161,-0.969,,,,0.8635713856
1741759305861621796,-1.023,,,,0.8643417491
1741759305869325431,-0.925,,,,0.8651121126
1741759305877029066,-0.929,,,,0.8658824761
1741759305884732701,-0.944,,,,0.8666528396
1741759305892436336,-0.907,,,,0.8674232031
1741759305900139971,-0.898,,,,0.8681935666
1741759305907843606,-0.905,,,,0.8689639301
1741759305915547241,-0.888,,,,0.8697342936
1741759305923250876,-0.883,,,,0.8705046571
1741759305930954511,-0.893,,,,0.8712750206
1741759305938658146,-0.888,,,,0.8720453841
1741759305946361781,-0.883,,,,0.8728157476
1741759305954065416,-0.89,,,,0.8735861111
1741759305961769051,-0.893,,,,0.8743564746
1741759305969472686,-0.888,,,,0.8751268381
1741759305977176321,-0.883,,,,0.8758972016
1741759305984879956,-0.883,,,,0.8766675651
1741759305992583591,-0.88,,,,0.8774379286
1741759306000287226,-0.873,,,,0.8782082921
1741759306007990861,-0.871,,,,0.8789786556
1741759306015694496,-0.866,,,,0.8797490191
1741759306023398131,-0.856,,,,0.8805193826
1741759306031101766,-0.851,,,,0.8812897461
1741759306038805401,-0.846,,,,0.8820601096
1741759306046509036,-0.844,,,,0.8828304731
1741759306054212671,-0.836,,,,0.8836008366
1741759306061916306,-0.8210000000000001,,,,0.8843712001
1741759306069619941,-0.8190000000000001,,,,0.8851415636
1741759306077323576,-0.8210000000000001,,,,0.8859119271
1741759306085027211,-0.8190000000000001,,,,0.8866822906
1741759306092730846,-0.8170000000000001,,,,0.8874526541
1741759306100434481,-0.8210000000000001,,,,0.8882230176
1741759306108138116,-0.8310000000000001,,,,0.8889933811
1741759306115841751,-0.836,,,,0.8897637446
1741759306123545386,-0.834,,,,0.8905341081
1741759306131249021,-0.834,,,,0.8913044716
1741759306138952656,-0.836,,,,0.8920748351
1741759306146656291,-0.841,,,,0.8928451986
1741759306154359926,-0.848,,,,0.8936155621
1741759306162063561,-0.851,,,,0.8943859256
1741759306169767196,-0.848,,,,0.8951562891
1741759306177470831,-0.853,,,,0.8959266526
1741759306185174466,-0.863,,,,0.8966970161
1741759306192878101,-0.866,,,,0.8974673796
1741759306200581736,-0.861,,,,0.8982377431
1741759306208285371,-0.861,,,,0.8990081066
1741759306215989009,-0.861,91.0,,,0.8997784704
1741759306223692574,-0.861,,,,0.9005488269
1741759306231396139,-0.863,,,,0.9013191834
1741759306239099704,-0.863,,,,0.9020895399
1741759306246803269,-0.861,,709.0,,0.9028598964
1741759306254506834,-0.861,,,,0.9036302529
1741759306262210399,-0.863,,,,0.9044006094
1741759306269913964,-0.866,,,,0.9051709659
1741759306277617529,-0.866,,,,0.9059413224
1741759306285321094,-0.861,,,,0.9067116789
1741759306293024659,-0.863,,,,0.9074820354
1741759306300728224,-0.863,,,,0.9082523919
1741759306308431789,-0.858,,,,0.9090227484
1741759306316135354,-0.856,,,,0.9097931049
1741759306323838919,-0.861,,,,0.9105634614
1741759306331542484,-0.863,,,,0.9113338179
1741759306339246049,-0.863,,,,0.9121041744
1741759306346949614,-0.868,,,,0.9128745309
1741759306354653179,-0.873,,,,0.9136448874
1741759306362356744,-0.873,,,,0.9144152439
1741759306370060309,-0.875,,,,0.9151856004
1741759306377763874,-0.883,,,,0.9159559569
1741759306385467439,-0.89,,,,0.9167263134
1741759306393171004,-0.893,,,,0.9174966699
1741759306400874569,-0.89,,,,0.9182670264
1741759306408578134,-0.885,,,,0.9190373829
1741759306416281699,-0.88,,,,0.9198077394
1741759306423985264,-0.88,,,,0.9205780959
1741759306431688829,-0.88,,,,0.9213484524
1741759306439392394,-0.871,,,,0.9221188089
1741759306447095959,-0.868,,,,0.9228891654
1741759306454799524,-0.871,,,,0.9236595219
1741759306462503089,-0.871,,,,0.9244298784
1741759306470206654,-0.868,,,,0.9252002349
1741759306477910219,-0.863,,,,0.9259705914
1741759306485613784,-0.856,,,,0.9267409479
1741759306493317349,-0.856,,,,0.9275113044
1741759306501020914,-0.861,,,,0.9282816609
1741759306508724479,-0.863,,,,0.9290520174
1741759306516428044,-0.873,,,,0.9298223739
1741759306524131609,-0.944,,,,0.9305927304
1741759306531835174,-1.064,,,,0.9313630869
1741759306539538739,-1.037,,,,0.9321334434
1741759306547242304,-0.613,,,,0.9329037999
1741759306554945869,-0.068,,,,0.9336741564
1741759306562649434,-0.184,,,,0.9344445129
1741759306570352999,-0.721,,,,0.9352148694
1741759306578056564,-0.755,,,,0.9359852259
1741759306585760129,-0.635,,,,0.9367555824
1741759306593463694,-0.902,,,,0.9375259389
1741759306601167259,-1.072,,,,0.9382962954
1741759306608870824,-0.966,,,,0.9390666519
1741759306616574389,-0.947,,,,0.9398370084
1741759306624277954,-0.986,,,,0.9406073649
1741759306631981519,-0.949,,,,0.9413777214
1741759306639685084,-0.927,,,,0.9421480779
1741759306647388649,-0.934,,,,0.9429184344
1741759306655092214,-0.925,,,,0.9436887909
1741759306662795779,-0.915,,,,0.9444591474
1741759306670499344,-0.917,,,,0.9452295039
1741759306678202909,-0.91,,,,0.9459998604
1741759306685906474,-0.905,,,,0.9467702169
1741759306693610039,-0.902,,,,0.9475405734
1741759306701313604,-0.898,,,,0.9483109299
1741759306709017169,-0.895,,,,0.9490812864
1741759306716720734,-0.888,,,,0.9498516429
1741759306724424299,-0.878,,,,0.9506219994
1741759306732127864,-0.875,,,,0.9513923559
1741759306739831429,-0.875,,,,0.9521627124
1741759306747534994,-0.863,,,,0.9529330689
1741759306755238559,-0.844,,,,0.9537034254
1741759306762942124,-0.836,,,,0.9544737819
1741759306770645689,-0.8290000000000001,,,,0.9552441384
1741759306778349284,-0.8170000000000001,,,,0.9560144979
1741759306786052570,-0.804,,,,0.9567848265
1741759306793755856,-0.794,,,,0.9575551551
1741759306801459142,-0.79,,,,0.9583254837
1741759306809162428,-0.787,,,,0.9590958123
1741759306816865714,-0.79,,,,0.9598661409
1741759306824569000,-0.794,,,,0.9606364695
1741759306832272286,-0.794,,,,0.9614067981
1741759306839975572,-0.794,,,,0.9621771267
1741759306847678858,-0.802,,,,0.9629474553
1741759306855382144,-0.809,,,,0.9637177839
1741759306863085430,-0.807,,,,0.9644881125
1741759306870788716,-0.802,,,,0.9652584411
1741759306878492002,-0.799,,,,0.9660287697
1741759306886195288,-0.802,,,,0.9667990983
1741759306893898574,-0.802,,,,0.9675694269
1741759306901601860,-0.804,,,,0.9683397555
1741759306909305146,-0.802,,,,0.9691100841
1741759306917008432,-0.792,,,,0.9698804127
1741759306924711718,-0.79,,,,0.9706507413
1741759306932415004,-0.794,,,,0.9714210699
1741759306940118290,-0.792,,,,0.9721913985
1741759306947821576,-0.787,,695.0,,0.9729617271
1741759306955524862,-0.785,,,,0.9737320557
1741759306963228148,-0.785,,,,0.9745023843
1741759306970931434,-0.782,,,,0.9752727129
1741759306978634720,-0.775,,,,0.9760430415
1741759306986338006,-0.777,,,,0.9768133701
1741759306994041292,-0.777,,,,0.9775836987
1741759307001744578,-0.772,,,,0.9783540273
1741759307009447864,-0.77,,,,0.9791243559
1741759307017151150,-0.765,,,,0.9798946845
1741759307024854436,-0.76,,,,0.9806650131
1741759307032557722,-0.765,,,,0.9814353417
1741759307040261008,-0.767,,,,0.9822056703
1741759307047964294,-0.763,,,,0.9829759989
1741759307055667580,-0.76,,,,0.9837463275
1741759307063370866,-0.763,,,,0.9845166561
1741759307071074152,-0.76,,,,0.9852869847
1741759307078777438,-0.758,,,,0.9860573133
1741759307086480724,-0.76,,,,0.9868276419
1741759307094184010,-0.758,,,,0.9875979705
1741759307101887296,-0.76,,,,0.9883682991
1741759307109590582,-0.763,,,,0.9891386277
1741759307117293868,-0.76,,,,0.9899089563
1741759307124997154,-0.758,,,,0.9906792849
1741759307132700440,-0.767,,,,0.9914496135
1741759307140403726,-0.775,,,,0.9922199421
1741759307148107012,-0.772,,,,0.9929902707
1741759307155810298,-0.763,,,,0.9937605993
1741759307163513584,-0.753,,,,0.9945309279
1741759307171216870,-0.748,,,,0.9953012565
1741759307178920156,-0.745,,,,0.9960715851
1741759307186623442,-0.738,,,,0.9968419137
1741759307194326728,-0.738,,,,0.9976122423
1741759307202030014,-0.74,,,,0.9983825709
1741759307209733300,-0.74,,,,0.9991528995
1741759307217436586,-0.738,,,,0.9999232281
1741759307225139872,-0.736,,,,1.0006935567
1741759307232843158,-0.731,,,,1.0014638853
1741759307240546444,-0.731,,,,1.0022342139
1741759307248249730,-0.74,,,,1.0030045425
1741759307255953016,-0.74,,,,1.0037748711
1741759307263656302,-0.753,,,,1.0045451997
1741759307271359588,-0.844,,,,1.0053155283
1741759307279062874,-0.978,,,,1.0060858569
1741759307286766160,-0.912,,,,1.0068561855
1741759307294469446,-0.37,,,,1.0076265141
1741759307302172732,0.223,,,,1.0083968427
1741759307309876018,0.053,,,,1.0091671713
1741759307317579304,-0.5,,,,1.0099374999
1741759307325282590,-0.606,,,,1.0107078285
1741759307332985876,-0.625,,,,1.0114781571
1741759307340689207,-0.888,90.0,,,1.0122484902
1741759307348392911,-0.978,,,,1.0130188606
1741759307356096615,-0.88,,,,1.013789231
1741759307363800319,-0.878,,,,1.0145596014
1741759307371504023,-0.9,,,,1.0153299718
1741759307379207727,-0.858,,,,1.0161003422
1741759307386911431,-0.839,,,,1.0168707126
1741759307394615135,-0.848,,,,1.017641083
1741759307402318839,-0.839,,,,1.0184114534
1741759307410022543,-0.8240000000000001,,,,1.0191818238
1741759307417726247,-0.8260000000000001,,,,1.0199521942
1741759307425429951,-0.8290000000000001,,,,1.0207225646
1741759307433133655,-0.8210000000000001,,,,1.021492935
1741759307440837359,-0.809,,,,1.0222633054
1741759307448541063,-0.8140000000000001,,,,1.0230336758
1741759307456244767,-0.8190000000000001,,,,1.0238040462
1741759307463948471,-0.812,,,,1.0245744166
1741759307471652175,-0.812,,,,1.025344787
1741759307479355879,-0.8140000000000001,,,,1.0261151574
1741759307487059583,-0.807,,,,1.0268855278
1741759307494763287,-0.797,,,,1.0276558982
1741759307502466991,-0.794,,,,1.0284262686
1741759307510170695,-0.785,,,,1.029196639
1741759307517874399,-0.77,,,,1.0299670094
1741759307525578103,-0.767,,,,1.0307373798
1741759307533281807,-0.76,,,,1.0315077502
1741759307540985511,-0.748,,,,1.0322781206
1741759307548689215,-0.74,,,,1.033048491
1741759307556392919,-0.733,,,,1.0338188614
1741759307564096623,-0.726,,,,1.0345892318
1741759307571800327,-0.726,,,,1.0353596022
1741759307579504031,-0.723,,,,1.0361299726
1741759307587207735,-0.721,,,,1.036900343
1741759307594911439,-0.718,,,,1.0376707134
1741759307602615143,-0.721,,,,1.0384410838
1741759307610318847,-0.721,,,,1.0392114542
1741759307618022551,-0.714,,,,1.0399818246
1741759307625726255,-0.718,,,,1.040752195
1741759307633429959,-0.726,,,,1.0415225654
1741759307641133663,-0.723,,,,1.0422929358
1741759307648837367,-0.723,,,,1.0430633062
1741759307656541071,-0.731,,,,1.0438336766
1741759307664244775,-0.733,,,,1.044604047
1741759307671948479,-0.731,,727.0,,1.0453744174
1741759307679652183,-0.733,,,,1.0461447878
1741759307687355887,-0.738,,,,1.0469151582
1741759307695059591,-0.736,,,,1.0476855286
1741759307702763295,-0.733,,,,1.048455899
1741759307710466999,-0.733,,,,1.0492262694
1741759307718170703,-0.728,,,,1.0499966398
1741759307725874407,-0.728,,,,1.0507670102
1741759307733578111,-0.728,,,,1.0515373806
1741759307741281815,-0.728,,,,1.052307751
1741759307748985519,-0.723,,,,1.0530781214
1741759307756689223,-0.718,,,,1.0538484918
1741759307764392927,-0.716,,,,1.0546188622
1741759307772096631,-0.714,,,,1.0553892326
1741759307779800335,-0.709,,,,1.056159603
1741759307787504039,-0.709,,,,1.0569299734
1741759307795207743,-0.711,,,,1.0577003438
1741759307802911447,-0.714,,,,1.0584707142
1741759307810615151,-0.714,,,,1.0592410846
1741759307818318855,-0.709,,,,1.060011455
1741759307826022559,-0.706,,,,1.0607818254
1741759307833726263,-0.711,,,,1.0615521958
1741759307841429967,-0.714,,,,1.0623225662
1741759307849133671,-0.711,,,,1.0630929366
1741759307856837375,-0.711,,,,1.063863307
1741759307864541079,-0.714,,,,1.0646336774
1741759307872244783,-0.711,,,,1.0654040478
1741759307879948487,-0.714,,,,1.0661744182
1741759307887652191,-0.723,,,,1.0669447886
1741759307895355895,-0.733,,,,1.067715159
1741759307903059656,-0.736,88.0,,,1.0684855351
1741759307910763221,-0.728,,,,1.0692558916
1741759307918466786,-0.718,,,,1.0700262481
1741759307926170351,-0.718,,,,1.0707966046
1741759307933873916,-0.716,,,,1.0715669611
1741759307941577481,-0.709,,,,1.0723373176
1741759307949281046,-0.709,,,,1.0731076741
1741759307956984611,-0.714,,,,1.0738780306
1741759307964688176,-0.721,,,,1.0746483871
1741759307972391741,-0.714,,,,1.0754187436
1741759307980095306,-0.704,,,,1.0761891001
1741759307987798871,-0.706,,,,1.0769594566
1741759307995502436,-0.711,,,,1.0777298131
1741759308003206001,-0.711,,,,1.0785001696
1741759308010909566,-0.711,,,,1.0792705261
1741759308018613131,-0.728,,,,1.0800408826
1741759308026316696,-0.809,,,,1.0808112391
1741759308034020261,-0.942,,,,1.0815815956
1741759308041723826,-0.902,,,,1.0823519521
1741759308049427391,-0.387,,,,1.0831223086
1741759308057130956,0.242,,,,1.0838926651
1741759308064834521,0.139,,,,1.0846630216
1741759308072538086,-0.419,,,,1.0854333781
1741759308080241651,-0.579,,,,1.0862037346
1741759308087945216,-0.606,,,,1.0869740911
1741759308095648781,-0.858,,,,1.0877444476
1741759308103352346,-0.966,,,,1.0885148041
1741759308111055911,-0.871,,,,1.0892851606
1741759308118759476,-0.858,,,,1.0900555171
1741759308126463041,-0.885,,,,1.0908258736
1741759308134166606,-0.851,,,,1.0915962301
1741759308141870171,-0.8290000000000001,,,,1.0923665866
1741759308149573736,-0.836,,,,1.0931369431
1741759308157277301,-0.8290000000000001,,,,1.0939072996
1741759308164980866,-0.8210000000000001,,,,1.0946776561
1741759308172684431,-0.8260000000000001,,,,1.0954480126
1741759308180387996,-0.8240000000000001,,,,1.0962183691
1741759308188091561,-0.8210000000000001,,,,1.0969887256
1741759308195795126,-0.8190000000000001,,,,1.0977590821
1741759308203498691,-0.8170000000000001,,,,1.0985294386
1741759308211202256,-0.8190000000000001,,,,1.0992997951
1741759308218905821,-0.8210000000000001,,,,1.1000701516
1741759308226609386,-0.8140000000000001,,,,1.1008405081
1741759308234312951,-0.809,,,,1.1016108646
1741759308242016516,-0.807,,,,1.1023812211
1741759308249720081,-0.807,,,,1.1031515776
1741759308257423646,-0.799,,,,1.1039219341
1741759308265127211,-0.79,,,,1.1046922906
1741759308272830776,-0.78,,,,1.1054626471
1741759308280534341,-0.775,,,,1.1062330036
1741759308288237906,-0.767,,,,1.1070033601
1741759308295941471,-0.758,,,,1.1077737166
1741759308303645036,-0.75,,,,1.1085440731
1741759308311348601,-0.736,,,,1.1093144296
1741759308319052166,-0.723,,,,1.1100847861
1741759308326755731,-0.723,,,,1.1108551426
1741759308334459296,-0.721,,,,1.1116254991
1741759308342162861,-0.718,,,,1.1123958556
1741759308349866426,-0.726,,,,1.1131662121
1741759308357569991,-0.731,,,,1.1139365686
1741759308365273556,-0.728,,,,1.1147069251
1741759308372977121,-0.728,,,,1.1154772816
1741759308380680686,-0.736,,,,1.1162476381
1741759308388384251,-0.738,,,,1.1170179946
1741759308396087816,-0.74,,,,1.1177883511
1741759308403791381,-0.745,,,,1.1185587076
1741759308411494946,-0.753,,742.0,,1.1193290641
1741759308419198511,-0.75,,,,1.1200994206
1741759308426902076,-0.748,,,,1.1208697771
1741759308434605641,-0.755,,,,1.1216401336
1741759308442309206,-0.763,,,,1.1224104901
1741759308450012771,-0.76,,,,1.1231808466
1741759308457716336,-0.758,,,,1.1239512031
1741759308465419927,-0.758,,,,1.1247215622
1741759308473123353,-0.755,,,,1.1254919048
1741759308480826779,-0.753,,,,1.1262622474
1741759308488530205,-0.755,,,,1.12703259
1741759308496233631,-0.753,,,,1.1278029326
1741759308503937057,-0.748,,,,1.1285732752
1741759308511640483,-0.745,,,,1.1293436178
1741759308519343909,-0.745,,,,1.1301139604
1741759308527047335,-0.743,,,,1.130884303
1741759308534750761,-0.738,,,,1.1316546456
1741759308542454187,-0.738,,,,1.1324249882
1741759308550157613,-0.743,,,,1.1331953308
1741759308557861039,-0.74,,,,1.1339656734
1741759308565564465,-0.738,,,,1.134736016
1741759308573267891,-0.743,,,,1.1355063586
1741759308580971317,-0.748,,,,1.1362767012
1741759308588674743,-0.745,,,,1.1370470438
1741759308596378169,-0.743,,,,1.1378173864
1741759308604081595,-0.75,,,,1.138587729
1741759308611785021,-0.753,,,,1.1393580716
1741759308619488447,-0.755,,,,1.1401284142
1741759308627191873,-0.758,,,,1.1408987568
1741759308634895299,-0.76,,,,1.1416690994
1741759308642598725,-0.763,,,,1.142439442
1741759308650302151,-0.77,,,,1.1432097846
1741759308658005577,-0.777,,,,1.1439801272
1741759308665709003,-0.78,,,,1.1447504698
1741759308673412429,-0.775,,,,1.1455208124
1741759308681115855,-0.767,,,,1.146291155
1741759308688819281,-0.765,,,,1.1470614976
1741759308696522707,-0.765,,,,1.1478318402
1741759308704226133,-0.763,,,,1.1486021828
1741759308711929559,-0.758,,,,1.1493725254
1741759308719632985,-0.755,,,,1.150142868
1741759308727336411,-0.758,,,,1.1509132106
1741759308735039837,-0.76,,,,1.1516835532
1741759308742743263,-0.758,,,,1.1524538958
1741759308750446689,-0.753,,,,1.1532242384
1741759308758150115,-0.75,,,,1.153994581
1741759308765853541,-0.75,,,,1.1547649236
1741759308773556967,-0.75,,,,1.1555352662
1741759308781260393,-0.763,,,,1.1563056088
1741759308788963819,-0.8170000000000001,,,,1.1570759514
1741759308796667245,-0.937,,,,1.157846294
1741759308804370671,-1.003,,,,1.1586166366
1741759308812074097,-0.704,,,,1.1593869792
1741759308819777523,-0.073,,,,1.1601573218
1741759308827480949,0.107,,,,1.1609276644
1741759308835184375,-0.404,,,,1.161698007
1741759308842887801,-0.704,,,,1.1624683496
1741759308850591227,-0.596,,,,1.1632386922
1741759308858294653,-0.745,,,,1.1640090348
1741759308865998079,-0.993,,,,1.1647793774
1741759308873701505,-0.949,,,,1.16554972
1741759308881404931,-0.883,,,,1.1663200626
1741759308889108357,-0.927,,,,1.1670904052
1741759308896811783,-0.912,,,,1.1678607478
1741759308904515209,-0.871,,,,1.1686310904
1741759308912218635,-0.873,,,,1.169401433
1741759308919922061,-0.868,,,,1.1701717756
1741759308927625487,-0.856,,,,1.1709421182
1741759308935328913,-0.861,,,,1.1717124608
1741759308943032339,-0.863,,,,1.1724828034
1741759308950735765,-0.846,,,,1.173253146
1741759308958439191,-0.841,,,,1.1740234886
1741759308966142617,-0.846,,,,1.1747938312
1741759308973846043,-0.839,,,,1.1755641738
1741759308981549469,-0.8310000000000001,,,,1.1763345164
1741759308989252895,-0.8290000000000001,,,,1.177104859
1741759308996956321,-0.8210000000000001,,,,1.1778752016
1741759309004659747,-0.8140000000000001,,,,1.1786455442
1741759309012363173,-0.809,,,,1.1794158868
1741759309020066599,-0.804,,,,1.1801862294
1741759309027770028,-0.794,87.0,,,1.1809565723
1741759309035473732,-0.78,,,,1.1817269427
1741759309043177436,-0.772,,,,1.1824973131
1741759309050881140,-0.765,,,,1.1832676835
1741759309058584844,-0.755,,,,1.1840380539
1741759309066288548,-0.745,,,,1.1848084243
1741759309073992252,-0.743,,,,1.1855787947
1741759309081695956,-0.743,,,,1.1863491651
1741759309089399660,-0.738,,,,1.1871195355
1741759309097103364,-0.733,,,,1.1878899059
1741759309104807068,-0.736,,,,1.1886602763
1741759309112510772,-0.74,,,,1.1894306467
1741759309120214476,-0.738,,,,1.1902010171
1741759309127918180,-0.738,,,,1.1909713875
1741759309135621884,-0.743,,,,1.1917417579
1741759309143325588,-0.743,,,,1.1925121283
1741759309151029292,-0.743,,,,1.1932824987
1741759309158732996,-0.738,,,,1.1940528691
1741759309166436700,-0.738,,748.0,,1.1948232395
1741759309174140404,-0.74,,,,1.1955936099
1741759309181844108,-0.74,,,,1.1963639803
1741759309189547812,-0.738,,,,1.1971343507
1741759309197251516,-0.733,,,,1.1979047211
1741759309204955220,-0.736,,,,1.1986750915
1741759309212658924,-0.736,,,,1.1994454619
1741759309220362628,-0.728,,,,1.2002158323
1741759309228066332,-0.723,,,,1.2009862027
1741759309235770036,-0.723,,,,1.2017565731
1741759309243473740,-0.728,,,,1.2025269435
1741759309251177444,-0.726,,,,1.2032973139
1741759309258881148,-0.721,,,,1.2040676843
1741759309266584852,-0.721,,,,1.2048380547
1741759309274288556,-0.721,,,,1.2056084251
1741759309281992260,-0.718,,,,1.2063787955
1741759309289695964,-0.714,,,,1.2071491659
1741759309297399668,-0.711,,,,1.2079195363
1741759309305103372,-0.711,,,,1.2086899067
1741759309312807076,-0.711,,,,1.2094602771
1741759309320510780,-0.714,,,,1.2102306475
1741759309328214484,-0.716,,,,1.2110010179
1741759309335918188,-0.716,,,,1.2117713883
1741759309343621892,-0.718,,,,1.2125417587
1741759309351325596,-0.718,,,,1.2133121291
1741759309359029300,-0.714,,,,1.2140824995
1741759309366733004,-0.718,,,,1.2148528699
1741759309374436708,-0.721,,,,1.2156232403
1741759309382140412,-0.718,,,,1.2163936107
1741759309389844116,-0.718,,,,1.2171639811
1741759309397547820,-0.718,,,,1.2179343515
1741759309405251524,-0.723,,,,1.2187047219
1741759309412955228,-0.731,,,,1.2194750923
1741759309420658932,-0.733,,,,1.2202454627
1741759309428362636,-0.728,,,,1.2210158331
1741759309436066340,-0.721,,,,1.2217862035
1741759309443770044,-0.721,,,,1.2225565739
1741759309451473748,-0.714,,,,1.2233269443
1741759309459177452,-0.709,,,,1.2240973147
1741759309466881156,-0.711,,,,1.2248676851
1741759309474584860,-0.714,,,,1.2256380555
1741759309482288564,-0.716,,,,1.2264084259
1741759309489992268,-0.711,,,,1.2271787963
1741759309497695972,-0.711,,,,1.2279491667
1741759309505399676,-0.718,,,,1.2287195371
1741759309513103380,-0.718,,,,1.2294899075
1741759309520807084,-0.716,,,,1.2302602779
1741759309528510788,-0.721,,,,1.2310306483
1741759309536214492,-0.738,,,,1.2318010187
1741759309543918196,-0.809,,,,1.2325713891
1741759309551621900,-0.939,,,,1.2333417595
1741759309559325604,-0.942,,,,1.2341121299
1741759309567029308,-0.52,,,,1.2348825003
1741759309574733012,0.107,,,,1.2356528707
1741759309582436716,0.098,,,,1.2364232411
1741759309590140473,-0.463,,,,1.2371936168
1741759309597843829,-0.637,,,,1.2379639524
1741759309605547185,-0.5640000000000001,,,,1.238734288
1741759309613250541,-0.792,,,,1.2395046236
1741759309620953897,-0.969,,,,1.2402749592
1741759309628657253,-0.875,,,,1.2410452948
1741759309636360609,-0.841,,,,1.2418156304
1741759309644063965,-0.885,,,,1.242585966
1741759309651767321,-0.853,,,,1.2433563016
1741759309659470677,-0.8170000000000001,,,,1.2441266372
1741759309667174033,-0.8290000000000001,,,,1.2448969728
1741759309674877389,-0.8290000000000001,,,,1.2456673084
1741759309682580745,-0.812,,,,1.246437644
1741759309690284101,-0.807,,,,1.2472079796
1741759309697987457,-0.804,,,,1.2479783152
1741759309705690813,-0.804,,,,1.2487486508
1741759309713394169,-0.802,,,,1.2495189864
1741759309721097525,-0.794,,,,1.250289322
1741759309728800881,-0.79,,,,1.2510596576
1741759309736504237,-0.792,,,,1.2518299932
1741759309744207593,-0.787,,,,1.2526003288
1741759309751910949,-0.78,,,,1.2533706644
1741759309759614305,-0.777,,,,1.254141
1741759309767317661,-0.767,,,,1.2549113356
1741759309775021017,-0.755,,,,1.2556816712
1741759309782724373,-0.75,,,,1.2564520068
1741759309790427729,-0.743,,,,1.2572223424
1741759309798131085,-0.731,,,,1.257992678
1741759309805834441,-0.721,,,,1.2587630136
1741759309813537797,-0.716,,,,1.2595333492
1741759309821241153,-0.709,,,,1.2603036848
1741759309828944509,-0.6990000000000001,,,,1.2610740204
1741759309836647865,-0.6960000000000001,,,,1.261844356
1741759309844351221,-0.6960000000000001,,,,1.2626146916
1741759309852054577,-0.6990000000000001,,,,1.2633850272
1741759309859757933,-0.6960000000000001,,,,1.2641553628
1741759309867461289,-0.6940000000000001,,,,1.2649256984
1741759309875164645,-0.6910000000000001,,,,1.265696034
1741759309882868001,-0.6960000000000001,,,,1.2664663696
1741759309890571357,-0.6990000000000001,,,,1.2672367052
1741759309898274713,-0.6990000000000001,,,,1.2680070408
1741759309905978069,-0.704,,741.0,,1.2687773764
1741759309913681425,-0.706,,,,1.269547712
1741759309921384781,-0.7010000000000001,,,,1.2703180476
1741759309929088137,-0.6990000000000001,,,,1.2710883832
1741759309936791493,-0.704,,,,1.2718587188
1741759309944494849,-0.711,,,,1.2726290544
1741759309952198205,-0.714,,,,1.27339939
1741759309959901561,-0.706,,,,1.2741697256
1741759309967604917,-0.706,,,,1.2749400612
1741759309975308273,-0.706,,,,1.2757103968
1741759309983011629,-0.7010000000000001,,,,1.2764807324
1741759309990714985,-0.7010000000000001,,,,1.277251068
1741759309998418341,-0.706,,,,1.2780214036
1741759310006121697,-0.6990000000000001,,,,1.2787917392
1741759310013825053,-0.6910000000000001,,,,1.2795620748
1741759310021528409,-0.6940000000000001,,,,1.2803324104
1741759310029231765,-0.6960000000000001,,,,1.281102746
1741759310036935121,-0.6960000000000001,,,,1.2818730816
1741759310044638477,-0.6990000000000001,,,,1.2826434172
1741759310052341833,-0.6990000000000001,,,,1.2834137528
1741759310060045189,-0.6940000000000001,,,,1.2841840884
1741759310067748545,-0.6940000000000001,,,,1.284954424
1741759310075451901,-0.6940000000000001,,,,1.2857247596
1741759310083155257,-0.6910000000000001,,,,1.2864950952
1741759310090858613,-0.6910000000000001,,,,1.2872654308
1741759310098561969,-0.6910000000000001,,,,1.2880357664
1741759310106265325,-0.6940000000000001,,,,1.288806102
1741759310113968681,-0.6910000000000001,,,,1.2895764376
1741759310121672037,-0.6940000000000001,,,,1.2903467732
1741759310129375393,-0.6990000000000001,,,,1.2911171088
1741759310137078749,-0.6960000000000001,,,,1.2918874444
1741759310144782105,-0.6940000000000001,,,,1.29265778
1741759310152485483,-0.704,86.0,,,1.2934281178
1741759310160189118,-0.716,,,,1.2941984813
1741759310167892753,-0.718,,,,1.2949688448
1741759310175596388,-0.714,,,,1.2957392083
1741759310183300023,-0.711,,,,1.2965095718
1741759310191003658,-0.706,,,,1.2972799353
1741759310198707293,-0.6940000000000001,,,,1.2980502988
1741759310206410928,-0.687,,,,1.2988206623
1741759310214114563,-0.682,,,,1.2995910258
1741759310221818198,-0.687,,,,1.3003613893
1741759310229521833,-0.6910000000000001,,,,1.3011317528
1741759310237225468,-0.6910000000000001,,,,1.3019021163
1741759310244929103,-0.687,,,,1.3026724798
1741759310252632738,-0.684,,,,1.3034428433
1741759310260336373,-0.684,,,,1.3042132068
1741759310268040008,-0.687,,,,1.3049835703
1741759310275743643,-0.6910000000000001,,,,1.3057539338
1741759310283447278,-0.706,,,,1.3065242973
1741759310291150913,-0.78,,,,1.3072946608
1741759310298854548,-0.922,,,,1.3080650243
1741759310306558183,-0.898,,,,1.3088353878
1741759310314261818,-0.353,,,,1.3096057513
1741759310321965453,0.353,,,,1.3103761148
1741759310329669088,0.279,,,,1.3111464783
1741759310337372723,-0.318,,,,1.3119168418
1741759310345076358,-0.537,,,,1.3126872053
1741759310352779993,-0.588,,,,1.3134575688
1741759310360483628,-0.853,,,,1.3142279323
1741759310368187263,-0.969,,,,1.3149982958
1741759310375890898,-0.868,,,,1.3157686593
1741759310383594533,-0.848,,,,1.3165390228
1741759310391298168,-0.873,,,,1.3173093863
1741759310399001803,-0.834,,,,1.3180797498
1741759310406705438,-0.8140000000000001,,,,1.3188501133
1741759310414409073,-0.8210000000000001,,,,1.3196204768
1741759310422112708,-0.812,,,,1.3203908403
1741759310429816343,-0.799,,,,1.3211612038
1741759310437519978,-0.802,,,,1.3219315673
1741759310445223613,-0.804,,,,1.3227019308
1741759310452927248,-0.799,,,,1.3234722943
1741759310460630883,-0.792,,,,1.3242426578
1741759310468334518,-0.79,,,,1.3250130213
1741759310476038153,-0.794,,,,1.3257833848
1741759310483741788,-0.794,,,,1.3265537483
1741759310491445423,-0.79,,,,1.3273241118
1741759310499149058,-0.792,,,,1.3280944753
1741759310506852693,-0.785,,,,1.3288648388
1741759310514556328,-0.775,,,,1.3296352023
1741759310522259963,-0.772,,,,1.3304055658
1741759310529963598,-0.763,,,,1.3311759293
1741759310537667233,-0.75,,,,1.3319462928
1741759310545370868,-0.748,,,,1.3327166563
1741759310553074503,-0.74,,,,1.3334870198
1741759310560778138,-0.723,,,,1.3342573833
1741759310568481773,-0.706,,,,1.3350277468
1741759310576185408,-0.6990000000000001,,,,1.3357981103
1741759310583889043,-0.6890000000000001,,,,1.3365684738
1741759310591592678,-0.679,,,,1.3373388373
1741759310599296313,-0.669,,,,1.3381092008
1741759310606999948,-0.667,,,,1.3388795643
1741759310614703583,-0.667,,,,1.3396499278
1741759310622407218,-0.667,,,,1.3404202913
1741759310630110853,-0.664,,,,1.3411906548
1741759310637814488,-0.669,,,,1.3419610183
1741759310645518123,-0.677,,,,1.3427313818
1741759310653221758,-0.677,,747.0,,1.3435017453
1741759310660925393,-0.677,,,,1.3442721088
1741759310668629028,-0.687,,,,1.3450424723
1741759310676332663,-0.6940000000000001,,,,1.3458128358
1741759310684036298,-0.687,,,,1.3465831993
1741759310691739933,-0.687,,,,1.3473535628
1741759310699443568,-0.6940000000000001,,,,1.3481239263
1741759310707147203,-0.6940000000000001,,,,1.3488942898
1741759310714850845,-0.6890000000000001,,,,1.349664654
1741759310722554131,-0.687,,,,1.3504349826
1741759310730257417,-0.6890000000000001,,,,1.3512053112
1741759310737960703,-0.6890000000000001,,,,1.3519756398
1741759310745663989,-0.687,,,,1.3527459684
1741759310753367275,-0.684,,,,1.353516297
1741759310761070561,-0.679,,,,1.3542866256
1741759310768773847,-0.672,,,,1.3550569542
1741759310776477133,-0.674,,,,1.3558272828
1741759310784180419,-0.674,,,,1.3565976114
1741759310791883705,-0.662,,,,1.35736794
1741759310799586991,-0.657,,,,1.3581382686
1741759310807290277,-0.66,,,,1.3589085972
1741759310814993563,-0.66,,,,1.3596789258
1741759310822696849,-0.662,,,,1.3604492544
1741759310830400135,-0.66,,,,1.361219583
1741759310838103421,-0.657,,,,1.3619899116
1741759310845806707,-0.66,,,,1.3627602402
1741759310853509993,-0.662,,,,1.3635305688
1741759310861213279,-0.662,,,,1.3643008974
1741759310868916565,-0.66,,,,1.365071226
1741759310876619851,-0.657,,,,1.3658415546
1741759310884323137,-0.664,,,,1.3666118832
1741759310892026423,-0.669,,,,1.3673822118
1741759310899729709,-0.672,,,,1.3681525404
1741759310907432995,-0.679,,,,1.368922869
1741759310915136281,-0.687,,,,1.3696931976
1741759310922839567,-0.684,,,,1.3704635262
1741759310930542853,-0.674,,,,1.3712338548
1741759310938246139,-0.667,,,,1.3720041834
1741759310945949425,-0.664,,,,1.372774512
1741759310953652711,-0.662,,,,1.3735448406
1741759310961355997,-0.657,,,,1.3743151692
1741759310969059283,-0.66,,,,1.3750854978
1741759310976762569,-0.664,,,,1.3758558264
1741759310984465855,-0.664,,,,1.376626155
1741759310992169141,-0.664,,,,1.3773964836
1741759310999872427,-0.662,,,,1.3781668122
1741759311007575713,-0.657,,,,1.3789371408
1741759311015278999,-0.662,,,,1.3797074694
1741759311022982285,-0.669,,,,1.380477798
1741759311030685571,-0.674,,,,1.3812481266
1741759311038388857,-0.736,,,,1.3820184552
1741759311046092143,-0.873,,,,1.3827887838
1741759311053795429,-0.9,,,,1.3835591124
1741759311061498715,-0.493,,,,1.384329441
1741759311069202001,0.181,,,,1.3850997696
1741759311076905287,0.267,,,,1.3858700982
1741759311084608573,-0.269,,,,1.3866404268
1741759311092311859,-0.542,,,,1.3874107554
1741759311100015145,-0.549,,,,1.388181084
1741759311107718431,-0.765,,,,1.3889514126
1741759311115421717,-0.927,,,,1.3897217412
1741759311123125003,-0.853,,,,1.3904920698
1741759311130828289,-0.812,,,,1.3912623984
1741759311138531575,-0.841,,,,1.392032727
1741759311146234861,-0.8140000000000001,,,,1.3928030556
1741759311153938147,-0.785,,,,1.3935733842
1741759311161641433,-0.79,,,,1.3943437128
1741759311169344719,-0.782,,,,1.3951140414
1741759311177048005,-0.77,,,,1.39588437
1741759311184751291,-0.77,,,,1.3966546986
1741759311192454577,-0.767,,,,1.3974250272
1741759311200157863,-0.765,,,,1.3981953558
1741759311207861149,-0.763,,,,1.3989656844
1741759311215564435,-0.758,,,,1.399736013
1741759311223267721,-0.755,,,,1.4005063416
1741759311230971007,-0.753,,,,1.4012766702
1741759311238674293,-0.75,,,,1.4020469988
1741759311246377579,-0.75,,,,1.4028173274
1741759311254080865,-0.748,,,,1.403587656
1741759311261784151,-0.74,,,,1.4043579846
1741759311269487437,-0.733,,,,1.4051283132
1741759311277190772,-0.726,84.0,,,1.4058986467
1741759311284894337,-0.718,,,,1.4066690032
1741759311292597902,-0.706,,,,1.4074393597
1741759311300301467,-0.6990000000000001,,,,1.4082097162
1741759311308005032,-0.6940000000000001,,,,1.4089800727
1741759311315708597,-0.687,,,,1.4097504292
1741759311323412162,-0.682,,,,1.4105207857
1741759311331115727,-0.677,,,,1.4112911422
1741759311338819292,-0.674,,,,1.4120614987
1741759311346522857,-0.667,,,,1.4128318552
1741759311354226422,-0.664,,,,1.4136022117
1741759311361929987,-0.667,,,,1.4143725682
1741759311369633552,-0.664,,,,1.4151429247
1741759311377337117,-0.662,,,,1.4159132812
1741759311385040682,-0.664,,,,1.4166836377
1741759311392744247,-0.664,,,,1.4174539942
1741759311400447812,-0.664,,,,1.4182243507
1741759311408151377,-0.667,,756.0,,1.4189947072
1741759311415854942,-0.669,,,,1.4197650637
1741759311423558507,-0.669,,,,1.4205354202
1741759311431262072,-0.672,,,,1.4213057767
1741759311438965637,-0.674,,,,1.4220761332
1741759311446669202,-0.672,,,,1.4228464897
1741759311454372767,-0.672,,,,1.4236168462
1741759311462076332,-0.677,,,,1.4243872027
1741759311469779897,-0.669,,,,1.4251575592
1741759311477483462,-0.664,,,,1.4259279157
1741759311485187027,-0.667,,,,1.4266982722
1741759311492890592,-0.667,,,,1.4274686287
1741759311500594157,-0.667,,,,1.4282389852
1741759311508297722,-0.664,,,,1.4290093417
1741759311516001287,-0.664,,,,1.4297796982
1741759311523704852,-0.662,,,,1.4305500547
1741759311531408417,-0.662,,,,1.4313204112
1741759311539111982,-0.66,,,,1.4320907677
1741759311546815547,-0.655,,,,1.4328611242
1741759311554519112,-0.652,,,,1.4336314807
1741759311562222677,-0.655,,,,1.4344018372
1741759311569926242,-0.652,,,,1.4351721937
1741759311577629807,-0.652,,,,1.4359425502
1741759311585333372,-0.652,,,,1.4367129067
1741759311593036937,-0.65,,,,1.4374832632
1741759311600740502,-0.647,,,,1.4382536197
1741759311608444067,-0.655,,,,1.4390239762
1741759311616147632,-0.655,,,,1.4397943327
1741759311623851197,-0.657,,,,1.4405646892
1741759311631554762,-0.66,,,,1.4413350457
1741759311639258327,-0.662,,,,1.4421054022
1741759311646961892,-0.664,,,,1.4428757587
1741759311654665457,-0.667,,,,1.4436461152
1741759311662369022,-0.674,,,,1.4444164717
1741759311670072587,-0.684,,,,1.4451868282
1741759311677776152,-0.684,,,,1.4459571847
1741759311685479717,-0.682,,,,1.4467275412
1741759311693183282,-0.677,,,,1.4474978977
1741759311700886847,-0.667,,,,1.4482682542
1741759311708590412,-0.664,,,,1.4490386107
1741759311716293977,-0.667,,,,1.4498089672
1741759311723997542,-0.662,,,,1.4505793237
1741759311731701107,-0.66,,,,1.4513496802
1741759311739404672,-0.667,,,,1.4521200367
1741759311747108237,-0.664,,,,1.4528903932
1741759311754811802,-0.66,,,,1.4536607497
1741759311762515367,-0.662,,,,1.4544311062
1741759311770218932,-0.662,,,,1.4552014627
1741759311777922497,-0.662,,,,1.4559718192
1741759311785626062,-0.684,,,,1.4567421757
1741759311793329627,-0.767,,,,1.4575125322
1741759311801033192,-0.89,,,,1.4582828887
1741759311808736757,-0.841,,,,1.4590532452
1741759311816440322,-0.353,,,,1.4598236017
1741759311824143887,0.235,,,,1.4605939582
1741759311831847452,0.107,,,,1.4613643147
1741759311839551043,-0.451,,,,1.4621346738
1741759311847254259,-0.561,,,,1.4629049954
1741759311854957475,-0.532,,,,1.463675317
1741759311862660691,-0.792,,,,1.4644456386
1741759311870363907,-0.912,,,,1.4652159602
1741759311878067123,-0.809,,,,1.4659862818
1741759311885770339,-0.799,,,,1.4667566034
1741759311893473555,-0.836,,,,1.467526925
1741759311901176771,-0.799,,,,1.4682972466
1741759311908879987,-0.777,,,,1.4690675682
1741759311916583203,-0.785,,,,1.4698378898
1741759311924286419,-0.78,,,,1.4706082114
1741759311931989635,-0.775,,,,1.471378533
1741759311939692851,-0.777,,,,1.4721488546
1741759311947396067,-0.772,,,,1.4729191762
1741759311955099283,-0.765,,,,1.4736894978
1741759311962802499,-0.767,,,,1.4744598194
1741759311970505715,-0.76,,,,1.475230141
1741759311978208931,-0.758,,,,1.4760004626
1741759311985912147,-0.763,,,,1.4767707842
1741759311993615363,-0.76,,,,1.4775411058
1741759312001318579,-0.745,,,,1.4783114274
1741759312009021795,-0.738,,,,1.479081749
1741759312016725011,-0.736,,,,1.4798520706
1741759312024428227,-0.728,,,,1.4806223922
1741759312032131443,-0.721,,,,1.4813927138
1741759312039834659,-0.716,,,,1.4821630354
1741759312047537875,-0.706,,,,1.482933357
1741759312055241091,-0.7010000000000001,,,,1.4837036786
1741759312062944307,-0.6990000000000001,,,,1.4844740002
1741759312070647523,-0.6910000000000001,,,,1.4852443218
1741759312078350739,-0.687,,,,1.4860146434
1741759312086053955,-0.687,,,,1.486784965
1741759312093757171,-0.682,,,,1.4875552866
1741759312101460387,-0.679,,,,1.4883256082
1741759312109163603,-0.677,,,,1.4890959298
1741759312116866819,-0.674,,,,1.4898662514
1741759312124570035,-0.679,,,,1.490636573
1741759312132273251,-0.679,,,,1.4914068946
1741759312139976467,-0.677,,,,1.4921772162
1741759312147679683,-0.684,,,,1.4929475378
1741759312155382899,-0.687,,,,1.4937178594
1741759312163086115,-0.687,,,,1.494488181
1741759312170789331,-0.6890000000000001,,766.0,,1.4952585026
1741759312178492547,-0.6960000000000001,,,,1.4960288242
1741759312186195763,-0.6960000000000001,,,,1.4967991458
1741759312193898979,-0.6940000000000001,,,,1.4975694674
1741759312201602195,-0.6960000000000001,,,,1.498339789
1741759312209305411,-0.6960000000000001,,,,1.4991101106
1741759312217008627,-0.6910000000000001,,,,1.4998804322
1741759312224711843,-0.6910000000000001,,,,1.5006507538
1741759312232415059,-0.6910000000000001,,,,1.5014210754
1741759312240118275,-0.687,,,,1.502191397
1741759312247821491,-0.687,,,,1.5029617186
1741759312255524707,-0.687,,,,1.5037320402
1741759312263227923,-0.684,,,,1.5045023618
1741759312270931139,-0.677,,,,1.5052726834
1741759312278634355,-0.674,,,,1.506043005
1741759312286337571,-0.674,,,,1.5068133266
1741759312294040787,-0.672,,,,1.5075836482
1741759312301744003,-0.669,,,,1.5083539698
1741759312309447219,-0.667,,,,1.5091242914
1741759312317150435,-0.664,,,,1.509894613
1741759312324853651,-0.662,,,,1.5106649346
1741759312332556867,-0.655,,,,1.5114352562
1741759312340260083,-0.657,,,,1.5122055778
1741759312347963299,-0.66,,,,1.5129758994
1741759312355666515,-0.66,,,,1.513746221
1741759312363369731,-0.655,,,,1.5145165426
1741759312371072947,-0.655,,,,1.5152868642
1741759312378776163,-0.66,,,,1.5160571858
1741759312386479379,-0.66,,,,1.5168275074
1741759312394182595,-0.66,,,,1.517597829
1741759312401885883,-0.662,84.0,,,1.5183681578
1741759312409589378,-0.672,,,,1.5191385073
1741759312417292873,-0.679,,,,1.5199088568
1741759312424996368,-0.677,,,,1.5206792063
1741759312432699863,-0.672,,,,1.5214495558
1741759312440403358,-0.664,,,,1.5222199053
1741759312448106853,-0.652,,,,1.5229902548
1741759312455810348,-0.652,,,,1.5237606043
1741759312463513843,-0.657,,,,1.5245309538
1741759312471217338,-0.652,,,,1.5253013033
1741759312478920833,-0.65,,,,1.5260716528
1741759312486624328,-0.652,,,,1.5268420023
1741759312494327823,-0.65,,,,1.5276123518
1741759312502031318,-0.647,,,,1.5283827013
1741759312509734813,-0.647,,,,1.5291530508
1741759312517438308,-0.647,,,,1.5299234003
1741759312525141803,-0.647,,,,1.5306937498
1741759312532845298,-0.672,,,,1.5314640993
1741759312540548793,-0.77,,,,1.5322344488
1741759312548252288,-0.885,,,,1.5330047983
1741759312555955783,-0.77,,,,1.5337751478
1741759312563659278,-0.218,,,,1.5345454973
1741759312571362773,0.279,,,,1.5353158468
1741759312579066268,0.004,,,,1.5360861963
1741759312586769763,-0.507,,,,1.5368565458
1741759312594473258,-0.507,,,,1.5376268953
1741759312602176753,-0.517,,,,1.5383972448
1741759312609880248,-0.799,,,,1.5391675943
1741759312617583743,-0.861,,,,1.5399379438
1741759312625287238,-0.755,,,,1.5407082933
1741759312632990733,-0.772,,,,1.5414786428
1741759312640694228,-0.799,,,,1.5422489923
1741759312648397723,-0.75,,,,1.5430193418
1741759312656101218,-0.736,,,,1.5437896913
1741759312663804713,-0.753,,,,1.5445600408
1741759312671508208,-0.743,,,,1.5453303903
1741759312679211703,-0.733,,,,1.5461007398
1741759312686915198,-0.731,,,,1.5468710893
1741759312694618693,-0.723,,,,1.5476414388
1741759312702322188,-0.726,,,,1.5484117883
1741759312710025683,-0.726,,,,1.5491821378
1741759312717729178,-0.718,,,,1.5499524873
1741759312725432673,-0.718,,,,1.5507228368
1741759312733136168,-0.721,,,,1.5514931863
1741759312740839663,-0.711,,,,1.5522635358
1741759312748543158,-0.7010000000000001,,,,1.5530338853
1741759312756246653,-0.6960000000000001,,,,1.5538042348
1741759312763950148,-0.6890000000000001,,,,1.5545745843
1741759312771653643,-0.677,,,,1.5553449338
1741759312779357138,-0.669,,,,1.5561152833
1741759312787060633,-0.662,,,,1.5568856328
1741759312794764128,-0.66,,,,1.5576559823
1741759312802467623,-0.65,,,,1.5584263318
1741759312810171118,-0.633,,,,1.5591966813
1741759312817874613,-0.625,,,,1.5599670308
1741759312825578108,-0.628,,,,1.5607373803
1741759312833281603,-0.625,,,,1.5615077298
1741759312840985098,-0.623,,,,1.5622780793
1741759312848688593,-0.623,,,,1.5630484288
1741759312856392088,-0.628,,,,1.5638187783
1741759312864095583,-0.63,,,,1.5645891278
1741759312871799078,-0.628,,,,1.5653594773
1741759312879502573,-0.63,,,,1.5661298268
1741759312887206068,-0.633,,,,1.5669001763
1741759312894909563,-0.633,,,,1.5676705258
1741759312902613058,-0.637,,,,1.5684408753
1741759312910316553,-0.64,,,,1.5692112248
1741759312918020048,-0.64,,,,1.5699815743
1741759312925723543,-0.64,,753.0,,1.5707519238
1741759312933427038,-0.64,,,,1.5715222733
1741759312941130533,-0.64,,,,1.5722926228
1741759312948834028,-0.642,,,,1.5730629723
1741759312956537523,-0.64,,,,1.5738333218
1741759312964241071,-0.637,83.0,,,1.5746036766
1741759312971944427,-0.633,,,,1.5753740122
1741759312979647783,-0.63,,,,1.5761443478
1741759312987351139,-0.628,,,,1.5769146834
1741759312995054495,-0.63,,,,1.577685019
1741759313002757851,-0.633,,,,1.5784553546
1741759313010461207,-0.623,,,,1.5792256902
1741759313018164563,-0.615,,,,1.5799960258
1741759313025867919,-0.62,,,,1.5807663614
1741759313033571275,-0.625,,,,1.581536697
1741759313041274631,-0.623,,,,1.5823070326
1741759313048977987,-0.613,,,,1.5830773682
1741759313056681343,-0.61,,,,1.5838477038
1741759313064384699,-0.615,,,,1.5846180394
1741759313072088055,-0.618,,,,1.585388375
1741759313079791411,-0.613,,,,1.5861587106
1741759313087494767,-0.608,,,,1.5869290462
1741759313095198123,-0.61,,,,1.5876993818
1741759313102901479,-0.613,,,,1.5884697174
1741759313110604835,-0.618,,,,1.589240053
1741759313118308191,-0.62,,,,1.5900103886
1741759313126011547,-0.618,,,,1.5907807242
1741759313133714903,-0.615,,,,1.5915510598
1741759313141418259,-0.62,,,,1.5923213954
1741759313149121615,-0.62,,,,1.593091731
1741759313156824971,-0.623,,,,1.5938620666
1741759313164528327,-0.635,,,,1.5946324022
1741759313172231683,-0.642,,,,1.5954027378
1741759313179935039,-0.637,,,,1.5961730734
1741759313187638395,-0.628,,,,1.596943409
1741759313195341751,-0.625,,,,1.5977137446
1741759313203045107,-0.62,,,,1.5984840802
1741759313210748463,-0.615,,,,1.5992544158
1741759313218451819,-0.613,,,,1.6000247514
1741759313226155175,-0.615,,,,1.600795087
1741759313233858531,-0.615,,,,1.6015654226
1741759313241561887,-0.618,,,,1.6023357582
1741759313249265243,-0.61,,,,1.6031060938
1741759313256968599,-0.606,,,,1.6038764294
1741759313264671955,-0.608,,,,1.604646765
1741759313272375311,-0.608,,,,1.6054171006
1741759313280078667,-0.608,,,,1.6061874362
1741759313287782023,-0.618,,,,1.6069577718
1741759313295485379,-0.667,,,,1.6077281074
1741759313303188735,-0.782,,,,1.608498443
1741759313310892091,-0.858,,,,1.6092687786
1741759313318595447,-0.561,,,,1.6100391142
1741759313326298803,0.117,,,,1.6108094498
1741759313334002159,0.375,,,,1.6115797854
1741759313341705515,-0.125,,,,1.612350121
1741759313349408871,-0.498,,,,1.6131204566
1741759313357112227,-0.471,,,,1.6138907922
1741759313364815583,-0.635,,,,1.6146611278
1741759313372518939,-0.863,,,,1.6154314634
1741759313380222295,-0.8140000000000001,,,,1.616201799
1741759313387925651,-0.748,,,,1.6169721346
1741759313395629007,-0.787,,,,1.6177424702
1741759313403332363,-0.772,,,,1.6185128058
1741759313411035719,-0.733,,,,1.6192831414
1741759313418739075,-0.736,,,,1.620053477
1741759313426442431,-0.736,,,,1.6208238126
1741759313434145787,-0.718,,,,1.6215941482
1741759313441849143,-0.718,,,,1.6223644838
1741759313449552499,-0.718,,,,1.6231348194
1741759313457255855,-0.714,,,,1.623905155
1741759313464959211,-0.709,,,,1.6246754906
1741759313472662567,-0.706,,,,1.6254458262
1741759313480365923,-0.704,,,,1.6262161618
1741759313488069279,-0.7010000000000001,,,,1.6269864974
1741759313495772635,-0.6990000000000001,,,,1.627756833
1741759313503475991,-0.6960000000000001,,,,1.6285271686
1741759313511179347,-0.687,,,,1.6292975042
1741759313518882703,-0.682,,,,1.6300678398
1741759313526586081,-0.672,,,,1.6308381776
1741759313534289297,-0.66,,,,1.6316084992
1741759313541992513,-0.652,,,,1.6323788208
1741759313549695729,-0.647,,,,1.6331491424
1741759313557398945,-0.642,,,,1.633919464
1741759313565102161,-0.633,,,,1.6346897856
1741759313572805377,-0.62,,,,1.6354601072
1741759313580508593,-0.618,,,,1.6362304288
1741759313588211809,-0.618,,,,1.6370007504
1741759313595915025,-0.613,,,,1.637771072
1741759313603618241,-0.613,,,,1.6385413936
1741759313611321457,-0.615,,,,1.6393117152
1741759313619024673,-0.61,,,,1.6400820368
1741759313626727889,-0.61,,,,1.6408523584
1741759313634431105,-0.618,,,,1.64162268
1741759313642134321,-0.618,,,,1.6423930016
1741759313649837537,-0.61,,,,1.6431633232
1741759313657540753,-0.613,,,,1.6439336448
1741759313665243969,-0.623,,,,1.6447039664
1741759313672947185,-0.62,,747.0,,1.645474288
1741759313680650401,-0.62,,,,1.6462446096
1741759313688353617,-0.625,,,,1.6470149312
1741759313696056833,-0.625,,,,1.6477852528
1741759313703760049,-0.618,,,,1.6485555744
1741759313711463265,-0.618,,,,1.649325896
1741759313719166481,-0.623,,,,1.6500962176
1741759313726869697,-0.62,,,,1.6508665392
1741759313734572913,-0.623,,,,1.6516368608
1741759313742276129,-0.62,,,,1.6524071824
1741759313749979345,-0.615,,,,1.653177504
1741759313757682561,-0.615,,,,1.6539478256
1741759313765385777,-0.613,,,,1.6547181472
1741759313773088993,-0.606,,,,1.6554884688
1741759313780792209,-0.603,,,,1.6562587904
1741759313788495425,-0.61,,,,1.657029112
1741759313796198641,-0.608,,,,1.6577994336
1741759313803901857,-0.606,,,,1.6585697552
1741759313811605073,-0.606,,,,1.6593400768
1741759313819308289,-0.608,,,,1.6601103984
1741759313827011505,-0.603,,,,1.66088072
1741759313834714721,-0.603,,,,1.6616510416
1741759313842417937,-0.606,,,,1.6624213632
1741759313850121153,-0.601,,,,1.6631916848
1741759313857824369,-0.601,,,,1.6639620064
1741759313865527585,-0.606,,,,1.664732328
1741759313873230801,-0.61,,,,1.6655026496
1741759313880934017,-0.608,,,,1.6662729712
1741759313888637233,-0.606,,,,1.6670432928
1741759313896340449,-0.608,,,,1.6678136144
1741759313904043665,-0.61,,,,1.668583936
1741759313911746881,-0.613,,,,1.6693542576
1741759313919450097,-0.62,,,,1.6701245792
1741759313927153313,-0.625,,,,1.6708949008
1741759313934856529,-0.63,,,,1.6716652224
1741759313942559745,-0.62,,,,1.672435544
1741759313950262961,-0.601,,,,1.6732058656
1741759313957966177,-0.591,,,,1.6739761872
1741759313965669393,-0.598,,,,1.6747465088
1741759313973372609,-0.598,,,,1.6755168304
1741759313981075825,-0.596,,,,1.676287152
1741759313988779041,-0.601,,,,1.6770574736
1741759313996482257,-0.603,,,,1.6778277952
1741759314004185473,-0.601,,,,1.6785981168
1741759314011888689,-0.596,,,,1.6793684384
1741759314019591905,-0.596,,,,1.68013876
1741759314027295121,-0.601,,,,1.6809090816
1741759314034998337,-0.606,,,,1.6816794032
1741759314042701553,-0.64,,,,1.6824497248
1741759314050404769,-0.755,,,,1.6832200464
1741759314058107985,-0.863,,,,1.683990368
1741759314065811201,-0.65,,,,1.6847606896
1741759314073514417,-0.004,,,,1.6855310112
1741759314081217633,0.392,,,,1.6863013328
1741759314088920921,-0.007,83.0,,,1.6870716616
1741759314096624556,-0.468,,,,1.6878420251
1741759314104328191,-0.471,,,,1.6886123886
1741759314112031826,-0.5760000000000001,,,,1.6893827521
1741759314119735461,-0.8260000000000001,,,,1.6901531156
1741759314127439096,-0.8170000000000001,,,,1.6909234791
1741759314135142731,-0.731,,,,1.6916938426
1741759314142846366,-0.76,,,,1.6924642061
1741759314150550001,-0.76,,,,1.6932345696
1741759314158253636,-0.716,,,,1.6940049331
1741759314165957271,-0.714,,,,1.6947752966
1741759314173660906,-0.716,,,,1.6955456601
1741759314181364541,-0.6990000000000001,,,,1.6963160236
1741759314189068176,-0.6960000000000001,,,,1.6970863871
1741759314196771811,-0.7010000000000001,,,,1.6978567506
1741759314204475446,-0.6960000000000001,,,,1.6986271141
1741759314212179081,-0.6940000000000001,,,,1.6993974776
1741759314219882716,-0.6940000000000001,,,,1.7001678411
1741759314227586351,-0.684,,,,1.7009382046
1741759314235289986,-0.679,,,,1.7017085681
1741759314242993621,-0.682,,,,1.7024789316
1741759314250697256,-0.682,,,,1.7032492951
1741759314258400891,-0.672,,,,1.7040196586
1741759314266104526,-0.664,,,,1.7047900221
1741759314273808161,-0.66,,,,1.7055603856
1741759314281511796,-0.647,,,,1.7063307491
1741759314289215431,-0.635,,,,1.7071011126
1741759314296919066,-0.63,,,,1.7078714761
1741759314304622701,-0.625,,,,1.7086418396
1741759314312326336,-0.615,,,,1.7094122031
1741759314320029971,-0.613,,,,1.7101825666
1741759314327733606,-0.613,,,,1.7109529301
1741759314335437241,-0.608,,,,1.7117232936
1741759314343140876,-0.603,,,,1.7124936571
1741759314350844511,-0.603,,,,1.7132640206
1741759314358548146,-0.601,,,,1.7140343841
1741759314366251781,-0.598,,,,1.7148047476
1741759314373955416,-0.598,,,,1.7155751111
1741759314381659051,-0.603,,,,1.7163454746
1741759314389362686,-0.601,,,,1.7171158381
1741759314397066321,-0.601,,,,1.7178862016
1741759314404769956,-0.608,,,,1.7186565651
1741759314412473591,-0.608,,,,1.7194269286
1741759314420177226,-0.608,,749.0,,1.7201972921
1741759314427880861,-0.615,,,,1.7209676556
1741759314435584496,-0.618,,,,1.7217380191
1741759314443288131,-0.615,,,,1.7225083826
1741759314450991766,-0.618,,,,1.7232787461
1741759314458695401,-0.62,,,,1.7240491096
1741759314466399036,-0.62,,,,1.7248194731
1741759314474102671,-0.618,,,,1.7255898366
1741759314481806306,-0.623,,,,1.7263602001
1741759314489509941,-0.62,,,,1.7271305636
1741759314497213576,-0.61,,,,1.7279009271
1741759314504917211,-0.615,,,,1.7286712906
1741759314512620846,-0.613,,,,1.7294416541
1741759314520324481,-0.603,,,,1.7302120176
1741759314528028116,-0.603,,,,1.7309823811
1741759314535731751,-0.606,,,,1.7317527446
1741759314543435386,-0.601,,,,1.7325231081
1741759314551139021,-0.596,,,,1.7332934716
1741759314558842656,-0.601,,,,1.7340638351
1741759314566546291,-0.603,,,,1.7348341986
1741759314574249926,-0.591,,,,1.7356045621
1741759314581953561,-0.588,,,,1.7363749256
1741759314589657196,-0.596,,,,1.7371452891
1741759314597360831,-0.596,,,,1.7379156526
1741759314605064466,-0.596,,,,1.7386860161
1741759314612768101,-0.598,,,,1.7394563796
1741759314620471736,-0.598,,,,1.7402267431
1741759314628175371,-0.601,,,,1.7409971066
1741759314635879006,-0.601,,,,1.7417674701
1741759314643582641,-0.593,,,,1.7425378336
1741759314651286283,-0.598,,,,1.7433081978
1741759314658989639,-0.608,,,,1.7440785334
1741759314666692995,-0.613,,,,1.744848869
1741759314674396351,-0.613,,,,1.7456192046
1741759314682099707,-0.615,,,,1.7463895402
1741759314689803063,-0.615,,,,1.7471598758
1741759314697506419,-0.615,,,,1.7479302114
1741759314705209775,-0.606,,,,1.748700547
1741759314712913131,-0.596,,,,1.7494708826
1741759314720616487,-0.601,,,,1.7502412182
1741759314728319843,-0.603,,,,1.7510115538
1741759314736023199,-0.598,,,,1.7517818894
1741759314743726555,-0.601,,,,1.752552225
1741759314751429911,-0.601,,,,1.7533225606
1741759314759133267,-0.598,,,,1.7540928962
1741759314766836623,-0.596,,,,1.7548632318
1741759314774539979,-0.598,,,,1.7556335674
1741759314782243335,-0.606,,,,1.756403903
1741759314789946691,-0.608,,,,1.7571742386
1741759314797650047,-0.655,,,,1.7579445742
1741759314805353403,-0.782,,,,1.7587149098
1741759314813056759,-0.856,,,,1.7594852454
1741759314820760115,-0.552,,,,1.760255581
1741759314828463471,0.112,,,,1.7610259166
1741759314836166827,0.341,,,,1.7617962522
1741759314843870183,-0.171,,,,1.7625665878
1741759314851573539,-0.515,,,,1.7633369234
1741759314859276895,-0.453,,,,1.764107259
1741759314866980251,-0.615,,,,1.7648775946
1741759314874683607,-0.846,,,,1.7656479302
1741759314882386963,-0.794,,,,1.7664182658
1741759314890090319,-0.733,,,,1.7671886014
1741759314897793675,-0.777,,,,1.767958937
1741759314905497031,-0.76,,,,1.7687292726
1741759314913200387,-0.714,,,,1.7694996082
1741759314920903743,-0.718,,,,1.7702699438
1741759314928607099,-0.728,,,,1.7710402794
1741759314936310455,-0.718,,,,1.771810615
1741759314944013811,-0.716,,,,1.7725809506
1741759314951717167,-0.718,,,,1.7733512862
1741759314959420523,-0.716,,,,1.7741216218
1741759314967123879,-0.704,,,,1.7748919574
1741759314974827235,-0.6940000000000001,,,,1.775662293
1741759314982530591,-0.6960000000000001,,,,1.7764326286
1741759314990233947,-0.6940000000000001,,,,1.7772029642
1741759314997937303,-0.684,,,,1.7779732998
1741759315005640659,-0.682,,,,1.7787436354
1741759315013344015,-0.682,,,,1.779513971
1741759315021047371,-0.672,,,,1.7802843066
1741759315028750727,-0.657,,,,1.7810546422
1741759315036454083,-0.645,,,,1.7818249778
1741759315044157439,-0.64,,,,1.7825953134
1741759315051860795,-0.633,,,,1.783365649
1741759315059564151,-0.62,,,,1.7841359846
1741759315067267507,-0.613,,,,1.7849063202
1741759315074970863,-0.61,,,,1.7856766558
1741759315082674219,-0.608,,,,1.7864469914
1741759315090377575,-0.606,,,,1.787217327
1741759315098080931,-0.606,,,,1.7879876626
1741759315105784287,-0.606,,,,1.7887579982
1741759315113487643,-0.606,,,,1.7895283338
1741759315121190999,-0.61,,,,1.7902986694
1741759315128894355,-0.608,,,,1.791069005
1741759315136597711,-0.603,,,,1.7918393406
1741759315144301067,-0.608,,,,1.7926096762
1741759315152004423,-0.608,,,,1.7933800118
1741759315159707779,-0.608,,,,1.7941503474
1741759315167411135,-0.61,,,,1.794920683
1741759315175114491,-0.61,,753.0,,1.7956910186
1741759315182817847,-0.61,,,,1.7964613542
1741759315190521203,-0.613,,,,1.7972316898
1741759315198224559,-0.615,,,,1.7980020254
1741759315205927915,-0.613,,,,1.798772361
1741759315213631297,-0.61,82.0,,,1.7995426992
1741759315221334583,-0.613,,,,1.8003130278
1741759315229037869,-0.613,,,,1.8010833564
1741759315236741155,-0.608,,,,1.801853685
1741759315244444441,-0.608,,,,1.8026240136
1741759315252147727,-0.606,,,,1.8033943422
1741759315259851013,-0.606,,,,1.8041646708
1741759315267554299,-0.608,,,,1.8049349994
1741759315275257585,-0.606,,,,1.805705328
1741759315282960871,-0.601,,,,1.8064756566
1741759315290664157,-0.598,,,,1.8072459852
1741759315298367443,-0.593,,,,1.8080163138
1741759315306070729,-0.588,,,,1.8087866424
1741759315313774015,-0.588,,,,1.809556971
1741759315321477301,-0.591,,,,1.8103272996
1741759315329180587,-0.588,,,,1.8110976282
1741759315336883873,-0.588,,,,1.8118679568
1741759315344587159,-0.591,,,,1.8126382854
1741759315352290445,-0.591,,,,1.813408614
1741759315359993731,-0.586,,,,1.8141789426
1741759315367697017,-0.588,,,,1.8149492712
1741759315375400303,-0.591,,,,1.8157195998
1741759315383103589,-0.586,,,,1.8164899284
1741759315390806875,-0.586,,,,1.817260257
1741759315398510161,-0.591,,,,1.8180305856
1741759315406213447,-0.593,,,,1.8188009142
1741759315413916733,-0.596,,,,1.8195712428
1741759315421620019,-0.603,,,,1.8203415714
1741759315429323305,-0.603,,,,1.8211119
1741759315437026591,-0.598,,,,1.8218822286
1741759315444729877,-0.591,,,,1.8226525572
1741759315452433163,-0.5760000000000001,,,,1.8234228858
1741759315460136449,-0.5710000000000001,,,,1.8241932144
1741759315467839735,-0.5740000000000001,,,,1.824963543
1741759315475543021,-0.5760000000000001,,,,1.8257338716
1741759315483246307,-0.5740000000000001,,,,1.8265042002
1741759315490949593,-0.5710000000000001,,,,1.8272745288
1741759315498652879,-0.5690000000000001,,,,1.8280448574
1741759315506356165,-0.5660000000000001,,,,1.828815186
1741759315514059451,-0.5690000000000001,,,,1.8295855146
1741759315521762737,-0.5660000000000001,,,,1.8303558432
1741759315529466023,-0.5640000000000001,,,,1.8311261718
1741759315537169309,-0.581,,,,1.8318965004
1741759315544872595,-0.652,,,,1.832666829
1741759315552575881,-0.782,,,,1.8334371576
1741759315560279167,-0.807,,,,1.8342074862
1741759315567982453,-0.412,,,,1.8349778148
1741759315575685739,0.255,,,,1.8357481434
1741759315583389025,0.328,,,,1.836518472
1741759315591092311,-0.228,,,,1.8372888006
1741759315598795597,-0.473,,,,1.8380591292
1741759315606498883,-0.429,,,,1.8388294578
1741759315614202169,-0.65,,,,1.8395997864
1741759315621905455,-0.8310000000000001,,,,1.840370115
1741759315629608741,-0.74,,,,1.8411404436
1741759315637312027,-0.704,,,,1.8419107722
1741759315645015313,-0.75,,,,1.8426811008
1741759315652718599,-0.721,,,,1.8434514294
1741759315660421885,-0.687,,,,1.844221758
1741759315668125171,-0.6940000000000001,,,,1.8449920866
1741759315675828457,-0.687,,,,1.8457624152
1741759315683531743,-0.669,,,,1.8465327438
1741759315691235029,-0.674,,,,1.8473030724
1741759315698938315,-0.679,,,,1.848073401
1741759315706641601,-0.667,,,,1.8488437296
1741759315714344887,-0.66,,,,1.8496140582
1741759315722048173,-0.664,,,,1.8503843868
1741759315729751459,-0.662,,,,1.8511547154
1741759315737454745,-0.657,,,,1.851925044
1741759315745158031,-0.655,,,,1.8526953726
1741759315752861317,-0.647,,,,1.8534657012
1741759315760564603,-0.645,,,,1.8542360298
1741759315768267889,-0.64,,,,1.8550063584
1741759315775971224,-0.625,,,,1.8557766919
1741759315783674649,-0.613,,,,1.8565470344
1741759315791378074,-0.61,,,,1.8573173769
1741759315799081499,-0.606,,,,1.8580877194
1741759315806784924,-0.591,,,,1.8588580619
1741759315814488349,-0.586,,,,1.8596284044
1741759315822191774,-0.593,,,,1.8603987469
1741759315829895199,-0.586,,,,1.8611690894
1741759315837598624,-0.583,,,,1.8619394319
1741759315845302049,-0.583,,,,1.8627097744
1741759315853005474,-0.583,,,,1.8634801169
1741759315860708899,-0.581,,,,1.8642504594
1741759315868412324,-0.579,,,,1.8650208019
1741759315876115749,-0.581,,,,1.8657911444
1741759315883819174,-0.581,,,,1.8665614869
1741759315891522599,-0.5740000000000001,,,,1.8673318294
1741759315899226024,-0.5740000000000001,,,,1.8681021719
1741759315906929449,-0.581,,,,1.8688725144
1741759315914632874,-0.579,,,,1.8696428569
1741759315922336299,-0.5740000000000001,,746.0,,1.8704131994
1741759315930039724,-0.579,,,,1.8711835419
1741759315937743149,-0.583,,,,1.8719538844
1741759315945446574,-0.583,,,,1.8727242269
1741759315953149999,-0.586,,,,1.8734945694
1741759315960853424,-0.586,,,,1.8742649119
1741759315968556849,-0.581,,,,1.8750352544
1741759315976260274,-0.581,,,,1.8758055969
1741759315983963699,-0.583,,,,1.8765759394
1741759315991667124,-0.579,,,,1.8773462819
1741759315999370549,-0.5740000000000001,,,,1.8781166244
1741759316007073974,-0.5760000000000001,,,,1.8788869669
1741759316014777399,-0.579,,,,1.8796573094
1741759316022480824,-0.5760000000000001,,,,1.8804276519
1741759316030184249,-0.5710000000000001,,,,1.8811979944
1741759316037887674,-0.5710000000000001,,,,1.8819683369
1741759316045591099,-0.5710000000000001,,,,1.8827386794
1741759316053294524,-0.5710000000000001,,,,1.8835090219
1741759316060997949,-0.5710000000000001,,,,1.8842793644
1741759316068701374,-0.5710000000000001,,,,1.8850497069
1741759316076404799,-0.5690000000000001,,,,1.8858200494
1741759316084108224,-0.5690000000000001,,,,1.8865903919
1741759316091811649,-0.5760000000000001,,,,1.8873607344
1741759316099515074,-0.581,,,,1.8881310769
1741759316107218499,-0.5760000000000001,,,,1.8889014194
1741759316114921924,-0.5710000000000001,,,,1.8896717619
1741759316122625349,-0.5760000000000001,,,,1.8904421044
1741759316130328774,-0.581,,,,1.8912124469
1741759316138032199,-0.581,,,,1.8919827894
1741759316145735624,-0.579,,,,1.8927531319
1741759316153439049,-0.583,,,,1.8935234744
1741759316161142474,-0.593,,,,1.8942938169
1741759316168845899,-0.593,,,,1.8950641594
1741759316176549324,-0.588,,,,1.8958345019
1741759316184252749,-0.588,,,,1.8966048444
1741759316191956174,-0.579,,,,1.8973751869
1741759316199659599,-0.5690000000000001,,,,1.8981455294
1741759316207363024,-0.5710000000000001,,,,1.8989158719
1741759316215066449,-0.5740000000000001,,,,1.8996862144
1741759316222769874,-0.5740000000000001,,,,1.9004565569
1741759316230473299,-0.5710000000000001,,,,1.9012268994
1741759316238176724,-0.5690000000000001,,,,1.9019972419
1741759316245880149,-0.5640000000000001,,,,1.9027675844
1741759316253583574,-0.5660000000000001,,,,1.9035379269
1741759316261286999,-0.5710000000000001,,,,1.9043082694
1741759316268990424,-0.5690000000000001,,,,1.9050786119
1741759316276693849,-0.5740000000000001,,,,1.9058489544
1741759316284397274,-0.601,,,,1.9066192969
1741759316292100699,-0.6890000000000001,,,,1.9073896394
1741759316299804124,-0.8140000000000001,,,,1.9081599819
1741759316307507549,-0.733,,,,1.9089303244
1741759316315210974,-0.196,,,,1.9097006669
1741759316322914399,0.36,,,,1.9104710094
1741759316330617824,0.154,,,,1.9112413519
1741759316338321321,-0.39,82.0,,,1.9120117016
1741759316346024537,-0.458,,,,1.9127820232
1741759316353727753,-0.468,,,,1.9135523448
1741759316361430969,-0.738,,,,1.9143226664
1741759316369134185,-0.8140000000000001,,,,1.915092988
1741759316376837401,-0.709,,,,1.9158633096
1741759316384540617,-0.714,,,,1.9166336312
1741759316392243833,-0.743,,,,1.9174039528
1741759316399947049,-0.7010000000000001,,,,1.9181742744
1741759316407650265,-0.682,,,,1.918944596
1741759316415353481,-0.6910000000000001,,,,1.9197149176
1741759316423056697,-0.684,,,,1.9204852392
1741759316430759913,-0.674,,,,1.9212555608
1741759316438463129,-0.677,,,,1.9220258824
1741759316446166345,-0.674,,,,1.922796204
1741759316453869561,-0.664,,,,1.9235665256
1741759316461572777,-0.664,,,,1.9243368472
1741759316469275993,-0.669,,,,1.9251071688
1741759316476979209,-0.667,,,,1.9258774904
1741759316484682425,-0.66,,,,1.926647812
1741759316492385641,-0.657,,,,1.9274181336
1741759316500088857,-0.657,,,,1.9281884552
1741759316507792073,-0.65,,,,1.9289587768
1741759316515495289,-0.637,,,,1.9297290984
1741759316523198505,-0.628,,,,1.93049942
1741759316530901721,-0.618,,,,1.9312697416
1741759316538604937,-0.61,,,,1.9320400632
1741759316546308153,-0.608,,,,1.9328103848
1741759316554011369,-0.601,,,,1.9335807064
1741759316561714585,-0.593,,,,1.934351028
1741759316569417801,-0.593,,,,1.9351213496
1741759316577121017,-0.598,,,,1.9358916712
1741759316584824233,-0.591,,,,1.9366619928
1741759316592527449,-0.583,,,,1.9374323144
1741759316600230665,-0.588,,,,1.938202636
1741759316607933881,-0.591,,,,1.9389729576
1741759316615637097,-0.586,,,,1.9397432792
1741759316623340313,-0.591,,,,1.9405136008
1741759316631043529,-0.598,,,,1.9412839224
1741759316638746745,-0.598,,,,1.942054244
1741759316646449961,-0.591,,,,1.9428245656
1741759316654153177,-0.596,,,,1.9435948872
1741759316661856393,-0.603,,,,1.9443652088
1741759316669559609,-0.603,,,,1.9451355304
1741759316677262825,-0.603,,760.0,,1.945905852
1741759316684966041,-0.61,,,,1.9466761736
1741759316692669257,-0.613,,,,1.9474464952
1741759316700372473,-0.61,,,,1.9482168168
1741759316708075689,-0.606,,,,1.9489871384
1741759316715778905,-0.603,,,,1.94975746
1741759316723482121,-0.606,,,,1.9505277816
1741759316731185337,-0.608,,,,1.9512981032
1741759316738888553,-0.606,,,,1.9520684248
1741759316746591769,-0.603,,,,1.9528387464
1741759316754294985,-0.603,,,,1.953609068
1741759316761998201,-0.603,,,,1.9543793896
1741759316769701417,-0.598,,,,1.9551497112
1741759316777404633,-0.593,,,,1.9559200328
1741759316785107849,-0.593,,,,1.9566903544
1741759316792811065,-0.593,,,,1.957460676
1741759316800514281,-0.596,,,,1.9582309976
1741759316808217497,-0.598,,,,1.9590013192
1741759316815920713,-0.601,,,,1.9597716408
1741759316823623929,-0.603,,,,1.9605419624
1741759316831327145,-0.606,,,,1.961312284
1741759316839030361,-0.608,,,,1.9620826056
1741759316846733577,-0.613,,,,1.9628529272
1741759316854436793,-0.61,,,,1.9636232488
1741759316862140009,-0.606,,,,1.9643935704
1741759316869843225,-0.601,,,,1.965163892
1741759316877546441,-0.606,,,,1.9659342136
1741759316885249657,-0.61,,,,1.9667045352
1741759316892952873,-0.615,,,,1.9674748568
1741759316900656161,-0.625,82.0,,,1.9682451856
1741759316908359796,-0.637,,,,1.9690155491
1741759316916063431,-0.635,,,,1.9697859126
1741759316923767066,-0.623,,,,1.9705562761
1741759316931470701,-0.623,,,,1.9713266396
1741759316939174336,-0.625,,,,1.9720970031
1741759316946877971,-0.62,,,,1.9728673666
1741759316954581606,-0.615,,,,1.9736377301
1741759316962285241,-0.618,,,,1.9744080936
1741759316969988876,-0.615,,,,1.9751784571
1741759316977692511,-0.613,,,,1.9759488206
1741759316985396146,-0.613,,,,1.9767191841
1741759316993099781,-0.613,,,,1.9774895476
1741759317000803416,-0.615,,,,1.9782599111
1741759317008507051,-0.62,,,,1.9790302746
1741759317016210686,-0.623,,,,1.9798006381
1741759317023914321,-0.628,,,,1.9805710016
1741759317031617956,-0.669,,,,1.9813413651
1741759317039321591,-0.79,,,,1.9821117286
1741759317047025226,-0.871,,,,1.9828820921
1741759317054728861,-0.628,,,,1.9836524556
1741759317062432496,-0.019,,,,1.9844228191
1741759317070136131,0.245,,,,1.9851931826
1741759317077839766,-0.228,,,,1.9859635461
1741759317085543401,-0.5690000000000001,,,,1.9867339096
1741759317093247036,-0.439,,,,1.9875042731
1741759317100950671,-0.561,,,,1.9882746366
1741759317108654306,-0.841,,,,1.9890450001
1741759317116357941,-0.812,,,,1.9898153636
1741759317124061576,-0.723,,,,1.9905857271
1741759317131765211,-0.772,,,,1.9913560906
1741759317139468846,-0.772,,,,1.9921264541
1741759317147172481,-0.726,,,,1.9928968176
1741759317154876116,-0.728,,,,1.9936671811
1741759317162579751,-0.733,,,,1.9944375446
1741759317170283386,-0.718,,,,1.9952079081
1741759317177987021,-0.716,,,,1.9959782716
1741759317185690656,-0.718,,,,1.9967486351
1741759317193394291,-0.714,,,,1.9975189986
1741759317201097926,-0.711,,,,1.9982893621
1741759317208801561,-0.706,,,,1.9990597256
1741759317216505196,-0.6990000000000001,,,,1.9998300891
1741759317224208831,-0.6910000000000001,,,,2.0006004526
1741759317231912466,-0.687,,,,2.0013708161
1741759317239616101,-0.682,,,,2.0021411796
1741759317247319736,-0.672,,,,2.0029115431
1741759317255023371,-0.66,,,,2.0036819066
1741759317262727006,-0.647,,,,2.0044522701
1741759317270430641,-0.633,,,,2.0052226336
1741759317278134276,-0.625,,,,2.0059929971
1741759317285837911,-0.613,,,,2.0067633606
1741759317293541546,-0.601,,,,2.0075337241
1741759317301245181,-0.596,,,,2.0083040876
1741759317308948816,-0.593,,,,2.0090744511
1741759317316652451,-0.593,,,,2.0098448146
1741759317324356086,-0.598,,,,2.0106151781
1741759317332059721,-0.601,,,,2.0113855416
1741759317339763356,-0.598,,,,2.0121559051
1741759317347466991,-0.601,,,,2.0129262686
1741759317355170626,-0.603,,,,2.0136966321
1741759317362874261,-0.606,,,,2.0144669956
1741759317370577896,-0.606,,,,2.0152373591
1741759317378281531,-0.603,,,,2.0160077226
1741759317385985166,-0.606,,,,2.0167780861
1741759317393688801,-0.608,,,,2.0175484496
1741759317401392436,-0.61,,,,2.0183188131
1741759317409096071,-0.61,,,,2.0190891766
1741759317416799706,-0.61,,,,2.0198595401
1741759317424503341,-0.606,,,,2.0206299036
1741759317432206976,-0.603,,749.0,,2.0214002671
1741759317439910611,-0.603,,,,2.0221706306
1741759317447614246,-0.598,,,,2.0229409941
1741759317455317881,-0.596,,,,2.0237113576
1741759317463021523,-0.593,,,,2.0244817218
1741759317470724739,-0.588,,,,2.0252520434
1741759317478427955,-0.591,,,,2.026022365
1741759317486131171,-0.586,,,,2.0267926866
1741759317493834387,-0.579,,,,2.0275630082
1741759317501537603,-0.579,,,,2.0283333298
1741759317509240819,-0.581,,,,2.0291036514
1741759317516944035,-0.579,,,,2.029873973
1741759317524647251,-0.5710000000000001,,,,2.0306442946
1741759317532350467,-0.5690000000000001,,,,2.0314146162
1741759317540053683,-0.5710000000000001,,,,2.0321849378
1741759317547756899,-0.5710000000000001,,,,2.0329552594
1741759317555460115,-0.5690000000000001,,,,2.033725581
1741759317563163331,-0.5640000000000001,,,,2.0344959026
1741759317570866547,-0.561,,,,2.0352662242
1741759317578569763,-0.5660000000000001,,,,2.0360365458
1741759317586272979,-0.5690000000000001,,,,2.0368068674
1741759317593976195,-0.5710000000000001,,,,2.037577189
1741759317601679411,-0.5740000000000001,,,,2.0383475106
1741759317609382627,-0.5710000000000001,,,,2.0391178322
1741759317617085843,-0.5690000000000001,,,,2.0398881538
1741759317624789059,-0.5740000000000001,,,,2.0406584754
1741759317632492275,-0.581,,,,2.041428797
1741759317640195491,-0.591,,,,2.0421991186
1741759317647898707,-0.596,,,,2.0429694402
1741759317655601923,-0.583,,,,2.0437397618
1741759317663305139,-0.5760000000000001,,,,2.0445100834
1741759317671008355,-0.5760000000000001,,,,2.045280405
1741759317678711571,-0.5710000000000001,,,,2.0460507266
1741759317686414787,-0.5640000000000001,,,,2.0468210482
1741759317694118003,-0.561,,,,2.0475913698
1741759317701821219,-0.561,,,,2.0483616914
1741759317709524435,-0.5640000000000001,,,,2.049132013
1741759317717227651,-0.561,,,,2.0499023346
1741759317724930867,-0.556,,,,2.0506726562
1741759317732634083,-0.556,,,,2.0514429778
1741759317740337299,-0.559,,,,2.0522132994
1741759317748040515,-0.552,,,,2.052983621
1741759317755743731,-0.547,,,,2.0537539426
1741759317763446947,-0.5690000000000001,,,,2.0545242642
1741759317771150163,-0.642,,,,2.0552945858
1741759317778853379,-0.775,,,,2.0560649074
1741759317786556595,-0.782,,,,2.056835229
1741759317794259811,-0.336,,,,2.0576055506
1741759317801963027,0.348,,,,2.0583758722
1741759317809666243,0.375,,,,2.0591461938
1741759317817369459,-0.198,,,,2.0599165154
1741759317825072675,-0.431,,,,2.060686837
1741759317832775891,-0.424,,,,2.0614571586
1741759317840479107,-0.662,,,,2.0622274802
1741759317848182323,-0.8190000000000001,,,,2.0629978018
1741759317855885539,-0.733,,,,2.0637681234
1741759317863588755,-0.7010000000000001,,,,2.064538445
1741759317871291971,-0.733,,,,2.0653087666
1741759317878995187,-0.704,,,,2.0660790882
1741759317886698403,-0.672,,,,2.0668494098
1741759317894401619,-0.674,,,,2.0676197314
1741759317902104835,-0.672,,,,2.068390053
1741759317909808051,-0.662,,,,2.0691603746
1741759317917511267,-0.66,,,,2.0699306962
1741759317925214483,-0.657,,,,2.0707010178
1741759317932917699,-0.655,,,,2.0714713394
1741759317940620915,-0.655,,,,2.072241661
1741759317948324131,-0.652,,,,2.0730119826
1741759317956027347,-0.647,,,,2.0737823042
1741759317963730563,-0.645,,,,2.0745526258
1741759317971433779,-0.642,,,,2.0753229474
1741759317979136995,-0.64,,,,2.076093269
1741759317986840211,-0.63,,,,2.0768635906
1741759317994543427,-0.623,,,,2.0776339122
1741759318002246643,-0.613,,,,2.0784042338
1741759318009949859,-0.601,,,,2.0791745554
1741759318017653075,-0.593,,,,2.079944877
1741759318025356363,-0.586,81.0,,,2.0807152058
1741759318033059719,-0.5760000000000001,,,,2.0814855414
1741759318040763075,-0.5690000000000001,,,,2.082255877
1741759318048466431,-0.561,,,,2.0830262126
1741759318056169787,-0.556,,,,2.0837965482
1741759318063873143,-0.554,,,,2.0845668838
1741759318071576499,-0.552,,,,2.0853372194
1741759318079279855,-0.549,,,,2.086107555
1741759318086983211,-0.547,,,,2.0868778906
1741759318094686567,-0.549,,,,2.0876482262
1741759318102389923,-0.549,,,,2.0884185618
1741759318110093279,-0.549,,,,2.0891888974
1741759318117796635,-0.552,,,,2.089959233
1741759318125499991,-0.552,,,,2.0907295686
1741759318133203347,-0.554,,,,2.0914999042
1741759318140906703,-0.561,,,,2.0922702398
1741759318148610059,-0.5660000000000001,,,,2.0930405754
1741759318156313415,-0.5660000000000001,,,,2.093810911
1741759318164016771,-0.5690000000000001,,,,2.0945812466
1741759318171720127,-0.5740000000000001,,,,2.0953515822
1741759318179423483,-0.5710000000000001,,753.0,,2.0961219178
1741759318187126839,-0.5660000000000001,,,,2.0968922534
1741759318194830195,-0.5660000000000001,,,,2.097662589
