time,ecg,hr,rr,marker,norm_time
1747019963563568876,-0.036,,,,0.0
1747019963571270002,-0.112,,,,0.0007701126
1747019963578971128,-0.152,,,,0.0015402252
1747019963586672254,-0.179,,,,0.0023103378
1747019963594373380,-0.184,,,,0.0030804504
1747019963602074506,-0.181,,,,0.003850563
1747019963609775632,-0.186,,,,0.0046206756
1747019963617476758,-0.181,,,,0.0053907882
1747019963625177884,-0.166,,,,0.0061609008
1747019963632879010,-0.159,,,,0.0069310134
1747019963640580136,-0.147,,,,0.007701126
1747019963648281262,-0.137,,,,0.0084712386
1747019963655982388,-0.13,,,,0.0092413512
1747019963663683514,-0.122,,,,0.0100114638
1747019963671384640,-0.117,,,,0.0107815764
1747019963679085766,-0.115,,,,0.011551689
1747019963686786892,-0.115,,,,0.0123218016
1747019963694488018,-0.11,,,,0.0130919142
1747019963702189144,-0.105,,,,0.0138620268
1747019963709890270,-0.107,,,,0.0146321394
1747019963717591396,-0.115,,,,0.015402252
1747019963725292522,-0.115,,,,0.0161723646
1747019963732993648,-0.112,,,,0.0169424772
1747019963740694774,-0.117,,,,0.0177125898
1747019963748395900,-0.125,,,,0.0184827024
1747019963756097026,-0.13,,,,0.019252815
1747019963763798152,-0.134,,,,0.0200229276
1747019963771499278,-0.139,,,,0.0207930402
1747019963779200404,-0.137,,,,0.0215631528
1747019963786901530,-0.122,,,,0.0223332654
1747019963794602656,-0.11,,,,0.023103378
1747019963802303782,-0.1,,,,0.0238734906
1747019963810004908,-0.125,,,,0.0246436032
1747019963817706034,-0.161,,,,0.0254137158
1747019963825407160,-0.122,,,,0.0261838284
1747019963833108286,-0.103,,,,0.026953941
1747019963840809412,-0.122,,,,0.0277240536
1747019963848510538,-0.088,,,,0.0284941662
1747019963856211664,-0.107,,,,0.0292642788
1747019963863912790,-0.171,,,,0.0300343914
1747019963871613916,-0.132,,,,0.030804504
1747019963879315042,-0.078,,,,0.0315746166
1747019963887016168,-0.088,,,,0.0323447292
1747019963894717294,-0.085,,,,0.0331148418
1747019963902418420,-0.063,,,,0.0338849544
1747019963910119546,-0.063,,,,0.034655067
1747019963917820672,-0.058,,,,0.0354251796
1747019963925521798,-0.053,,,,0.0361952922
1747019963933222924,-0.058,,,,0.0369654048
1747019963940924050,-0.061,,,,0.0377355174
1747019963948625176,-0.056,,,,0.03850563
1747019963956326302,-0.053,,,,0.0392757426
1747019963964027428,-0.051,,,,0.0400458552
1747019963971728554,-0.051,,,,0.0408159678
1747019963979429680,-0.056,,,,0.0415860804
1747019963987130806,-0.061,,,,0.042356193
1747019963994831932,-0.058,,,,0.0431263056
1747019964002533058,-0.056,,,,0.0438964182
1747019964010234184,-0.056,,,,0.0446665308
1747019964017935310,-0.063,,,,0.0454366434
1747019964025636436,-0.078,,,,0.046206756
1747019964033337562,-0.076,,,,0.0469768686
1747019964041038688,-0.058,,,,0.0477469812
1747019964048739814,-0.046,,,,0.0485170938
1747019964056440940,-0.024,,,,0.0492872064
1747019964064142066,0.004,,,,0.050057319
1747019964071843192,0.002,,,,0.0508274316
1747019964079544318,-0.009,,,,0.0515975442
1747019964087245444,-0.019,,,,0.0523676568
1747019964094946570,-0.044,,,,0.0531377694
1747019964102647696,-0.071,,,,0.053907882
1747019964110348822,-0.056,,,,0.0546779946
1747019964118049948,-0.031,,,,0.0554481072
1747019964125751126,-0.029,69.0,896.0,,0.056218225
1747019964133452252,-0.024,,912.0,,0.0569883376
1747019964141153378,-0.026,,,,0.0577584502
1747019964148854504,-0.041,,,,0.0585285628
1747019964156555630,0.063,,,,0.0592986754
1747019964164256756,0.478,,,,0.060068788
1747019964171957882,1.089,,,,0.0608389006
1747019964179659008,1.283,,,,0.0616090132
1747019964187360134,0.588,,,,0.0623791258
1747019964195061260,-0.395,,,,0.0631492384
1747019964202762386,-0.723,,,,0.063919351
1747019964210463512,-0.473,,,,0.0646894636
1747019964218164638,-0.267,,,,0.0654595762
1747019964225865764,-0.171,,,,0.0662296888
1747019964233566890,-0.034,,,,0.0669998014
1747019964241268016,0.026,,,,0.067769914
1747019964248969142,0.0,,,,0.0685400266
1747019964256670268,0.017,,,,0.0693101392
1747019964264371394,0.049,,,,0.0700802518
1747019964272072520,0.046,,,,0.0708503644
1747019964279773646,0.051,,,,0.071620477
1747019964287474772,0.063,,,,0.0723905896
1747019964295175898,0.068,,,,0.0731607022
1747019964302877024,0.08,,,,0.0739308148
1747019964310578150,0.095,,,,0.0747009274
1747019964318279276,0.105,,,,0.07547104
1747019964325980402,0.115,,,,0.0762411526
1747019964333681528,0.134,,,,0.0770112652
1747019964341382654,0.152,,,,0.0777813778
1747019964349083780,0.164,,,,0.0785514904
1747019964356784906,0.186,,,,0.079321603
1747019964364486032,0.211,,,,0.0800917156
1747019964372187158,0.23,,,,0.0808618282
1747019964379888284,0.247,,,,0.0816319408
1747019964387589410,0.262,,,,0.0824020534
1747019964395290536,0.267,,,,0.083172166
1747019964402991662,0.264,,,,0.0839422786
1747019964410692788,0.262,,,,0.0847123912
1747019964418393914,0.255,,,,0.0854825038
1747019964426095040,0.235,,,,0.0862526164
1747019964433796166,0.201,,,,0.087022729
1747019964441497292,0.149,,,,0.0877928416
1747019964449198418,0.078,,,,0.0885629542
1747019964456899544,0.002,,,,0.0893330668
1747019964464600670,-0.071,,,,0.0901031794
1747019964472301796,-0.132,,,,0.090873292
1747019964480002922,-0.174,,,,0.0916434046
1747019964487704048,-0.203,,,,0.0924135172
1747019964495405174,-0.223,,,,0.0931836298
1747019964503106300,-0.233,,,,0.0939537424
1747019964510807426,-0.235,,,,0.094723855
1747019964518508552,-0.228,,,,0.0954939676
1747019964526209678,-0.218,,,,0.0962640802
1747019964533910804,-0.208,,,,0.0970341928
1747019964541611930,-0.198,,,,0.0978043054
1747019964549313056,-0.193,,,,0.098574418
1747019964557014182,-0.184,,,,0.0993445306
1747019964564715308,-0.171,,,,0.1001146432
1747019964572416434,-0.164,,,,0.1008847558
1747019964580117560,-0.157,,,,0.1016548684
1747019964587818686,-0.149,,,,0.102424981
1747019964595519812,-0.147,,,,0.1031950936
1747019964603220938,-0.142,,,,0.1039652062
1747019964610922064,-0.139,,,,0.1047353188
1747019964618623190,-0.142,,,,0.1055054314
1747019964626324316,-0.144,,,,0.106275544
1747019964634025442,-0.142,,,,0.1070456566
1747019964641726568,-0.139,,,,0.1078157692
1747019964649427694,-0.147,,,,0.1085858818
1747019964657128820,-0.149,,,,0.1093559944
1747019964664829946,-0.157,,,,0.110126107
1747019964672531072,-0.159,,,,0.1108962196
1747019964680232198,-0.152,,,,0.1116663322
1747019964687933376,-0.149,,,,0.11243645
1747019964695634502,-0.152,,,,0.1132065626
1747019964703335628,-0.154,,,,0.1139766752
1747019964711036754,-0.149,,,,0.1147467878
1747019964718737880,-0.137,,,,0.1155169004
1747019964726439006,-0.134,,,,0.116287013
1747019964734140132,-0.134,,,,0.1170571256
1747019964741841258,-0.13,,,,0.1178272382
1747019964749542384,-0.127,,,,0.1185973508
1747019964757243510,-0.122,,,,0.1193674634
1747019964764944636,-0.117,,,,0.120137576
1747019964772645762,-0.115,,,,0.1209076886
1747019964780346888,-0.112,,,,0.1216778012
1747019964788048014,-0.115,,,,0.1224479138
1747019964795749140,-0.11,,,,0.1232180264
1747019964803450266,-0.103,,,,0.123988139
1747019964811151392,-0.098,,,,0.1247582516
1747019964818852518,-0.093,,,,0.1255283642
1747019964826553644,-0.09,,,,0.1262984768
1747019964834254770,-0.088,,,,0.1270685894
1747019964841955896,-0.083,,,,0.127838702
1747019964849657022,-0.08,,,,0.1286088146
1747019964857358148,-0.073,,,,0.1293789272
1747019964865059274,-0.066,,,,0.1301490398
1747019964872760400,-0.066,,,,0.1309191524
1747019964880461526,-0.068,,,,0.131689265
1747019964888162652,-0.066,,,,0.1324593776
1747019964895863778,-0.056,,,,0.1332294902
1747019964903564904,-0.049,,,,0.1339996028
1747019964911266030,-0.051,,,,0.1347697154
1747019964918967156,-0.051,,,,0.135539828
1747019964926668282,-0.053,,,,0.1363099406
1747019964934369408,-0.049,,,,0.1370800532
1747019964942070534,-0.034,,,,0.1378501658
1747019964949771660,-0.017,,,,0.1386202784
1747019964957472786,0.007,,,,0.139390391
1747019964965173912,0.017,,,,0.1401605036
1747019964972875038,0.0,,,,0.1409306162
1747019964980576164,-0.014,,,,0.1417007288
1747019964988277290,-0.012,,,,0.1424708414
1747019964995978416,-0.007,,,,0.143240954
1747019965003679542,-0.009,,,,0.1440110666
1747019965011380668,-0.012,,,,0.1447811792
1747019965019081794,-0.004,,,,0.1455512918
1747019965026782920,0.0,,,,0.1463214044
1747019965034484046,0.0,,,,0.147091517
1747019965042185172,-0.019,,,,0.1478616296
1747019965049886298,-0.044,,,,0.1486317422
1747019965057587424,0.09,,,,0.1494018548
1747019965065288550,0.596,,,,0.1501719674
1747019965072989676,1.273,,,,0.15094208
1747019965080690802,1.334,,,,0.1517121926
1747019965088391928,0.402,,,,0.1524823052
1747019965096093054,-0.601,,,,0.1532524178
1747019965103794180,-0.711,,,,0.1540225304
1747019965111495306,-0.338,,,,0.154792643
1747019965119196432,-0.184,,,,0.1555627556
1747019965126897558,-0.115,,,,0.1563328682
1747019965134598684,0.026,,,,0.1571029808
1747019965142299810,0.053,,,,0.1578730934
1747019965150000936,0.022,,,,0.158643206
1747019965157702062,0.056,,,,0.1594133186
1747019965165403188,0.083,,,,0.1601834312
1747019965173104314,0.076,,,,0.1609535438
1747019965180805440,0.09,,,,0.1617236564
1747019965188506566,0.11,,,,0.162493769
1747019965196207692,0.115,,,,0.1632638816
1747019965203908818,0.13,,,,0.1640339942
1747019965211609944,0.144,,,,0.1648041068
1747019965219311070,0.157,,,,0.1655742194
1747019965227012196,0.171,,,,0.166344332
1747019965234713322,0.191,,,,0.1671144446
1747019965242414448,0.211,,,,0.1678845572
1747019965250115626,0.233,68.0,917.0,,0.168654675
1747019965257816404,0.26,,,,0.1694247528
1747019965265517182,0.289,,,,0.1701948306
1747019965273217960,0.321,,,,0.1709649084
1747019965280918738,0.345,,,,0.1717349862
1747019965288619516,0.36,,,,0.172505064
1747019965296320294,0.372,,,,0.1732751418
1747019965304021072,0.38,,,,0.1740452196
1747019965311721850,0.375,,,,0.1748152974
1747019965319422628,0.365,,,,0.1755853752
1747019965327123406,0.343,,,,0.176355453
1747019965334824184,0.291,,,,0.1771255308
1747019965342524962,0.218,,,,0.1778956086
1747019965350225740,0.132,,,,0.1786656864
1747019965357926518,0.049,,,,0.1794357642
1747019965365627296,-0.036,,,,0.180205842
1747019965373328074,-0.1,,,,0.1809759198
1747019965381028852,-0.142,,,,0.1817459976
1747019965388729630,-0.171,,,,0.1825160754
1747019965396430408,-0.184,,,,0.1832861532
1747019965404131186,-0.188,,,,0.184056231
1747019965411831964,-0.186,,,,0.1848263088
1747019965419532742,-0.174,,,,0.1855963866
1747019965427233520,-0.164,,,,0.1863664644
1747019965434934298,-0.154,,,,0.1871365422
1747019965442635076,-0.144,,,,0.18790662
1747019965450335854,-0.132,,,,0.1886766978
1747019965458036632,-0.12,,,,0.1894467756
1747019965465737410,-0.107,,,,0.1902168534
1747019965473438188,-0.098,,,,0.1909869312
1747019965481138966,-0.093,,,,0.191757009
1747019965488839744,-0.088,,,,0.1925270868
1747019965496540522,-0.076,,,,0.1932971646
1747019965504241300,-0.076,,,,0.1940672424
1747019965511942078,-0.076,,,,0.1948373202
1747019965519642856,-0.063,,,,0.195607398
1747019965527343634,-0.061,,,,0.1963774758
1747019965535044412,-0.066,,,,0.1971475536
1747019965542745190,-0.061,,,,0.1979176314
1747019965550445968,-0.053,,,,0.1986877092
1747019965558146746,-0.056,,,,0.199457787
1747019965565847524,-0.061,,,,0.2002278648
1747019965573548302,-0.056,,,,0.2009979426
1747019965581249080,-0.058,,,,0.2017680204
1747019965588949858,-0.063,,,,0.2025380982
1747019965596650636,-0.051,,,,0.203308176
1747019965604351414,-0.041,,,,0.2040782538
1747019965612052192,-0.049,,,,0.2048483316
1747019965619752970,-0.046,,,,0.2056184094
1747019965627453748,-0.044,,,,0.2063884872
1747019965635154526,-0.049,,,,0.207158565
1747019965642855304,-0.041,,,,0.2079286428
1747019965650556082,-0.036,,,,0.2086987206
1747019965658256860,-0.044,,,,0.2094687984
1747019965665957638,-0.046,,,,0.2102388762
1747019965673658416,-0.041,,,,0.211008954
1747019965681359194,-0.039,,,,0.2117790318
1747019965689059972,-0.039,,,,0.2125491096
1747019965696760750,-0.036,,,,0.2133191874
1747019965704461528,-0.034,,,,0.2140892652
1747019965712162306,-0.036,,,,0.214859343
1747019965719863084,-0.036,,,,0.2156294208
1747019965727563862,-0.039,,,,0.2163994986
1747019965735264640,-0.036,,,,0.2171695764
1747019965742965418,-0.026,,,,0.2179396542
1747019965750666196,-0.026,,,,0.218709732
1747019965758366974,-0.031,,,,0.2194798098
1747019965766067752,-0.031,,,,0.2202498876
1747019965773768530,-0.026,,,,0.2210199654
1747019965781469308,-0.026,,,,0.2217900432
1747019965789170086,-0.026,,,,0.222560121
1747019965796870864,-0.019,,,,0.2233301988
1747019965804571642,-0.017,,,,0.2241002766
1747019965812272449,-0.022,,,,0.2248703573
1747019965819973506,-0.019,,,,0.225640463
1747019965827674563,-0.022,,,,0.2264105687
1747019965835375620,-0.031,,,,0.2271806744
1747019965843076677,-0.019,,,,0.2279507801
1747019965850777734,-0.004,,,,0.2287208858
1747019965858478791,0.009,,,,0.2294909915
1747019965866179848,0.029,,,,0.2302610972
1747019965873880905,0.039,,,,0.2310312029
1747019965881581962,0.019,,,,0.2318013086
1747019965889283019,0.002,,,,0.2325714143
1747019965896984076,0.004,,,,0.23334152
1747019965904685133,0.007,,,,0.2341116257
1747019965912386190,0.002,,,,0.2348817314
1747019965920087247,0.004,,,,0.2356518371
1747019965927788304,0.009,,,,0.2364219428
1747019965935489361,0.012,,,,0.2371920485
1747019965943190418,0.014,,,,0.2379621542
1747019965950891475,-0.009,,,,0.2387322599
1747019965958592532,-0.026,,,,0.2395023656
1747019965966293589,0.161,,,,0.2402724713
1747019965973994646,0.738,,,,0.241042577
1747019965981695703,1.378,,,,0.2418126827
1747019965989396760,1.256,,,,0.2425827884
1747019965997097817,0.188,,,,0.2433528941
1747019966004798874,-0.706,,,,0.2441229998
1747019966012499931,-0.645,,,,0.2448931055
1747019966020200988,-0.269,,,,0.2456632112
1747019966027902045,-0.171,,,,0.2464333169
1747019966035603102,-0.085,,,,0.2472034226
1747019966043304159,0.041,,,,0.2479735283
1747019966051005216,0.039,,,,0.248743634
1747019966058706273,0.019,,,,0.2495137397
1747019966066407330,0.061,,,,0.2502838454
1747019966074108387,0.076,,,,0.2510539511
1747019966081809444,0.068,,,,0.2518240568
1747019966089510501,0.083,,,,0.2525941625
1747019966097211558,0.105,,,,0.2533642682
1747019966104912615,0.11,,,,0.2541343739
1747019966112613672,0.12,,,,0.2549044796
1747019966120314729,0.139,,,,0.2556745853
1747019966128015786,0.154,,,,0.256444691
1747019966135716843,0.166,,,,0.2572147967
1747019966143417900,0.186,,,,0.2579849024
1747019966151118957,0.206,,,,0.2587550081
1747019966158820014,0.228,,,,0.2595251138
1747019966166521071,0.255,,,,0.2602952195
1747019966174222128,0.282,,,,0.2610653252
1747019966181923185,0.309,,,,0.2618354309
1747019966189624242,0.331,,,,0.2626055366
1747019966197325299,0.35,,,,0.2633756423
1747019966205026356,0.36,,,,0.264145748
1747019966212727413,0.36,,,,0.2649158537
1747019966220428470,0.363,,,,0.2656859594
1747019966228129527,0.35,,,,0.2664560651
1747019966235830584,0.318,,,,0.2672261708
1747019966243531641,0.272,,,,0.2679962765
1747019966251232698,0.203,,,,0.2687663822
1747019966258933755,0.117,,,,0.2695364879
1747019966266634812,0.029,,,,0.2703065936
1747019966274335869,-0.046,,,,0.2710766993
1747019966282036926,-0.11,,,,0.271846805
1747019966289737983,-0.152,,,,0.2726169107
1747019966297439040,-0.169,,,,0.2733870164
1747019966305140097,-0.181,,,,0.2741571221
1747019966312841154,-0.188,,,,0.2749272278
1747019966320542211,-0.181,,,,0.2756973335
1747019966328243268,-0.169,,,,0.2764674392
1747019966335944325,-0.157,,,,0.2772375449
1747019966343645382,-0.149,,,,0.2780076506
1747019966351346439,-0.137,,,,0.2787777563
1747019966359047496,-0.122,,,,0.279547862
1747019966366748553,-0.115,,,,0.2803179677
1747019966374449612,-0.105,68.0,900.0,,0.2810880736
1747019966382150738,-0.093,,,,0.2818581862
1747019966389851864,-0.09,,,,0.2826282988
1747019966397552990,-0.085,,,,0.2833984114
1747019966405254116,-0.078,,,,0.284168524
1747019966412955242,-0.08,,,,0.2849386366
1747019966420656368,-0.078,,,,0.2857087492
1747019966428357494,-0.073,,,,0.2864788618
1747019966436058620,-0.071,,,,0.2872489744
1747019966443759746,-0.071,,,,0.288019087
1747019966451460872,-0.071,,,,0.2887891996
1747019966459161998,-0.076,,,,0.2895593122
1747019966466863124,-0.08,,,,0.2903294248
1747019966474564250,-0.078,,,,0.2910995374
1747019966482265376,-0.08,,,,0.29186965
1747019966489966502,-0.085,,,,0.2926397626
1747019966497667628,-0.085,,,,0.2934098752
1747019966505368754,-0.08,,,,0.2941799878
1747019966513069880,-0.083,,,,0.2949501004
1747019966520771006,-0.083,,,,0.295720213
1747019966528472132,-0.083,,,,0.2964903256
1747019966536173258,-0.08,,,,0.2972604382
1747019966543874384,-0.076,,,,0.2980305508
1747019966551575510,-0.078,,,,0.2988006634
1747019966559276636,-0.076,,,,0.299570776
1747019966566977762,-0.073,,,,0.3003408886
1747019966574678888,-0.076,,,,0.3011110012
1747019966582380014,-0.076,,,,0.3018811138
1747019966590081140,-0.076,,,,0.3026512264
1747019966597782266,-0.073,,,,0.303421339
1747019966605483392,-0.071,,,,0.3041914516
1747019966613184518,-0.066,,,,0.3049615642
1747019966620885644,-0.063,,,,0.3057316768
1747019966628586770,-0.066,,,,0.3065017894
1747019966636287896,-0.066,,,,0.307271902
1747019966643989022,-0.063,,,,0.3080420146
1747019966651690148,-0.063,,,,0.3088121272
1747019966659391274,-0.063,,,,0.3095822398
1747019966667092400,-0.063,,,,0.3103523524
1747019966674793526,-0.063,,,,0.311122465
1747019966682494652,-0.058,,,,0.3118925776
1747019966690195778,-0.056,,,,0.3126626902
1747019966697896904,-0.053,,,,0.3134328028
1747019966705598030,-0.053,,,,0.3142029154
1747019966713299156,-0.063,,,,0.314973028
1747019966721000282,-0.071,,,,0.3157431406
1747019966728701408,-0.061,,,,0.3165132532
1747019966736402534,-0.041,,,,0.3172833658
1747019966744103660,-0.019,,,,0.3180534784
1747019966751804786,0.0,,,,0.318823591
1747019966759505912,-0.004,,,,0.3195937036
1747019966767207038,-0.034,,,,0.3203638162
1747019966774908164,-0.041,,,,0.3211339288
1747019966782609290,-0.034,,,,0.3219040414
1747019966790310416,-0.039,,,,0.322674154
1747019966798011542,-0.041,,,,0.3234442666
1747019966805712668,-0.034,,,,0.3242143792
1747019966813413794,-0.031,,,,0.3249844918
1747019966821114920,-0.031,,,,0.3257546044
1747019966828816046,-0.036,,,,0.326524717
1747019966836517172,-0.058,,,,0.3272948296
1747019966844218298,-0.041,,,,0.3280649422
1747019966851919424,0.228,,,,0.3288350548
1747019966859620550,0.858,,,,0.3296051674
1747019966867321676,1.376,,,,0.33037528
1747019966875022802,0.998,,,,0.3311453926
1747019966882723928,-0.125,,,,0.3319155052
1747019966890425054,-0.807,,,,0.3326856178
1747019966898126180,-0.596,,,,0.3334557304
1747019966905827306,-0.269,,,,0.334225843
1747019966913528432,-0.193,,,,0.3349959556
1747019966921229558,-0.078,,,,0.3357660682
1747019966928930684,0.026,,,,0.3365361808
1747019966936631862,0.004,68.0,899.0,,0.3373062986
1747019966944332988,0.004,,,,0.3380764112
1747019966952034114,0.049,,,,0.3388465238
1747019966959735240,0.056,,,,0.3396166364
1747019966967436366,0.049,,,,0.340386749
1747019966975137492,0.066,,,,0.3411568616
1747019966982838618,0.08,,,,0.3419269742
1747019966990539744,0.09,,,,0.3426970868
1747019966998240870,0.112,,,,0.3434671994
1747019967005941996,0.127,,,,0.344237312
1747019967013643122,0.137,,,,0.3450074246
1747019967021344248,0.154,,,,0.3457775372
1747019967029045374,0.169,,,,0.3465476498
1747019967036746500,0.191,,,,0.3473177624
1747019967044447626,0.22,,,,0.348087875
1747019967052148752,0.242,,,,0.3488579876
1747019967059849878,0.267,,,,0.3496281002
1747019967067551004,0.296,,,,0.3503982128
1747019967075252130,0.321,,,,0.3511683254
1747019967082953256,0.336,,,,0.351938438
1747019967090654382,0.338,,,,0.3527085506
1747019967098355508,0.341,,,,0.3534786632
1747019967106056634,0.336,,,,0.3542487758
1747019967113757760,0.321,,,,0.3550188884
1747019967121458886,0.296,,,,0.355789001
1747019967129160012,0.242,,,,0.3565591136
1747019967136861138,0.166,,,,0.3573292262
1747019967144562264,0.085,,,,0.3580993388
1747019967152263390,0.007,,,,0.3588694514
1747019967159964516,-0.066,,,,0.359639564
1747019967167665642,-0.122,,,,0.3604096766
1747019967175366768,-0.157,,,,0.3611797892
1747019967183067894,-0.174,,,,0.3619499018
1747019967190769020,-0.184,,,,0.3627200144
1747019967198470146,-0.184,,,,0.363490127
1747019967206171272,-0.176,,,,0.3642602396
1747019967213872398,-0.171,,,,0.3650303522
1747019967221573524,-0.166,,,,0.3658004648
1747019967229274650,-0.157,,,,0.3665705774
1747019967236975776,-0.137,,,,0.36734069
1747019967244676902,-0.122,,,,0.3681108026
1747019967252378028,-0.12,,,,0.3688809152
1747019967260079154,-0.11,,,,0.3696510278
1747019967267780280,-0.095,,,,0.3704211404
1747019967275481406,-0.088,,,,0.371191253
1747019967283182532,-0.083,,,,0.3719613656
1747019967290883658,-0.083,,,,0.3727314782
1747019967298584784,-0.078,,,,0.3735015908
1747019967306285910,-0.076,,,,0.3742717034
1747019967313987036,-0.078,,,,0.375041816
1747019967321688162,-0.078,,,,0.3758119286
1747019967329389288,-0.078,,,,0.3765820412
1747019967337090414,-0.076,,,,0.3773521538
1747019967344791540,-0.076,,,,0.3781222664
1747019967352492666,-0.083,,,,0.378892379
1747019967360193792,-0.085,,,,0.3796624916
1747019967367894918,-0.088,,,,0.3804326042
1747019967375596044,-0.088,,,,0.3812027168
1747019967383297170,-0.085,,,,0.3819728294
1747019967390998296,-0.085,,,,0.382742942
1747019967398699422,-0.085,,,,0.3835130546
1747019967406400548,-0.085,,,,0.3842831672
1747019967414101674,-0.088,,,,0.3850532798
1747019967421802800,-0.085,,,,0.3858233924
1747019967429503926,-0.08,,,,0.386593505
1747019967437205052,-0.08,,,,0.3873636176
1747019967444906178,-0.08,,,,0.3881337302
1747019967452607304,-0.078,,,,0.3889038428
1747019967460308430,-0.073,,,,0.3896739554
1747019967468009556,-0.076,,,,0.390444068
1747019967475710682,-0.073,,,,0.3912141806
1747019967483411808,-0.071,,,,0.3919842932
1747019967491112934,-0.071,,,,0.3927544058
1747019967498814112,-0.068,,,,0.3935245236
1747019967506515238,-0.068,,,,0.3942946362
1747019967514216364,-0.066,,,,0.3950647488
1747019967521917490,-0.061,,,,0.3958348614
1747019967529618616,-0.058,,,,0.396604974
1747019967537319742,-0.053,,,,0.3973750866
1747019967545020868,-0.051,,,,0.3981451992
1747019967552721994,-0.066,,,,0.3989153118
1747019967560423120,-0.073,,,,0.3996854244
1747019967568124246,-0.058,,,,0.400455537
1747019967575825372,-0.046,,,,0.4012256496
1747019967583526498,-0.034,,,,0.4019957622
1747019967591227624,-0.007,,,,0.4027658748
1747019967598928750,0.0,,,,0.4035359874
1747019967606629876,-0.024,,,,0.4043061
1747019967614331002,-0.041,,,,0.4050762126
1747019967622032128,-0.034,,,,0.4058463252
1747019967629733254,-0.029,,,,0.4066164378
1747019967637434380,-0.034,,,,0.4073865504
1747019967645135506,-0.031,,,,0.408156663
1747019967652836632,-0.029,,,,0.4089267756
1747019967660537758,-0.024,,,,0.4096968882
1747019967668238884,-0.026,,,,0.4104670008
1747019967675940010,-0.053,,,,0.4112371134
1747019967683641136,-0.066,,,,0.412007226
1747019967691342262,0.132,,,,0.4127773386
1747019967699043388,0.714,,,,0.4135474512
1747019967706744514,1.332,,,,0.4143175638
1747019967714445640,1.19,,,,0.4150876764
1747019967722146766,0.142,,,,0.415857789
1747019967729847892,-0.728,,,,0.4166279016
1747019967737549018,-0.682,,,,0.4173980142
1747019967745250144,-0.331,,,,0.4181681268
1747019967752951270,-0.223,,,,0.4189382394
1747019967760652396,-0.12,,,,0.419708352
1747019967768353522,0.014,,,,0.4204784646
1747019967776054648,0.012,,,,0.4212485772
1747019967783755774,-0.007,,,,0.4220186898
1747019967791456900,0.034,,,,0.4227888024
1747019967799158026,0.056,,,,0.423558915
1747019967806859152,0.051,,,,0.4243290276
1747019967814560278,0.066,,,,0.4250991402
1747019967822261404,0.08,,,,0.4258692528
1747019967829962530,0.088,,,,0.4266393654
1747019967837663656,0.103,,,,0.427409478
1747019967845364782,0.117,,,,0.4281795906
1747019967853065908,0.132,,,,0.4289497032
1747019967860767034,0.149,,,,0.4297198158
1747019967868468160,0.164,,,,0.4304899284
1747019967876169286,0.186,,,,0.431260041
1747019967883870412,0.215,,,,0.4320301536
1747019967891571538,0.24,,,,0.4328002662
1747019967899272664,0.262,,,,0.4335703788
1747019967906973790,0.289,,,,0.4343404914
1747019967914674916,0.314,,,,0.435110604
1747019967922376042,0.328,,,,0.4358807166
1747019967930077168,0.333,,,,0.4366508292
1747019967937778294,0.333,,,,0.4374209418
1747019967945479420,0.331,,,,0.4381910544
1747019967953180546,0.318,,,,0.438961167
1747019967960881672,0.289,,,,0.4397312796
1747019967968582798,0.235,,,,0.4405013922
1747019967976283924,0.166,,,,0.4412715048
1747019967983985050,0.088,,,,0.4420416174
1747019967991686176,0.004,,,,0.44281173
1747019967999387302,-0.061,,,,0.4435818426
1747019968007088428,-0.117,,,,0.4443519552
1747019968014789554,-0.164,,,,0.4451220678
1747019968022490680,-0.181,,,,0.4458921804
1747019968030191806,-0.184,,,,0.446662293
1747019968037892932,-0.184,,,,0.4474324056
1747019968045594058,-0.186,,,,0.4482025182
1747019968053295184,-0.181,,,,0.4489726308
1747019968060996362,-0.169,68.0,907.0,,0.4497427486
1747019968068697488,-0.157,,,,0.4505128612
1747019968076398614,-0.144,,,,0.4512829738
1747019968084099740,-0.132,,,,0.4520530864
1747019968091800866,-0.122,,,,0.452823199
1747019968099501992,-0.11,,,,0.4535933116
1747019968107203118,-0.098,,,,0.4543634242
1747019968114904244,-0.09,,,,0.4551335368
1747019968122605370,-0.083,,,,0.4559036494
1747019968130306496,-0.071,,,,0.456673762
1747019968138007622,-0.063,,,,0.4574438746
1747019968145708748,-0.066,,,,0.4582139872
1747019968153409874,-0.068,,,,0.4589840998
1747019968161111000,-0.066,,,,0.4597542124
1747019968168812126,-0.061,,,,0.460524325
1747019968176513252,-0.061,,,,0.4612944376
1747019968184214378,-0.061,,,,0.4620645502
1747019968191915504,-0.068,,,,0.4628346628
1747019968199616630,-0.071,,,,0.4636047754
1747019968207317756,-0.076,,,,0.464374888
1747019968215018882,-0.076,,,,0.4651450006
1747019968222720008,-0.073,,,,0.4659151132
1747019968230421134,-0.073,,,,0.4666852258
1747019968238122260,-0.076,,,,0.4674553384
1747019968245823386,-0.08,,,,0.468225451
1747019968253524512,-0.076,,,,0.4689955636
1747019968261225638,-0.068,,,,0.4697656762
1747019968268926764,-0.071,,,,0.4705357888
1747019968276627890,-0.071,,,,0.4713059014
1747019968284329016,-0.063,,,,0.472076014
1747019968292030142,-0.063,,,,0.4728461266
1747019968299731268,-0.066,,,,0.4736162392
1747019968307432394,-0.063,,,,0.4743863518
1747019968315133520,-0.061,,,,0.4751564644
1747019968322834646,-0.061,,,,0.475926577
1747019968330535772,-0.071,,,,0.4766966896
1747019968338236898,-0.076,,,,0.4774668022
1747019968345938024,-0.068,,,,0.4782369148
1747019968353639150,-0.053,,,,0.4790070274
1747019968361340276,-0.039,,,,0.47977714
1747019968369041402,-0.017,,,,0.4805472526
1747019968376742528,-0.009,,,,0.4813173652
1747019968384443654,-0.026,,,,0.4820874778
1747019968392144780,-0.044,,,,0.4828575904
1747019968399845906,-0.044,,,,0.483627703
1747019968407547032,-0.041,,,,0.4843978156
1747019968415248158,-0.041,,,,0.4851679282
1747019968422949284,-0.036,,,,0.4859380408
1747019968430650410,-0.031,,,,0.4867081534
1747019968438351536,-0.031,,,,0.487478266
1747019968446052662,-0.036,,,,0.4882483786
1747019968453753788,-0.058,,,,0.4890184912
1747019968461454914,-0.078,,,,0.4897886038
1747019968469156040,0.058,,,,0.4905587164
1747019968476857166,0.5660000000000001,,,,0.491328829
1747019968484558292,1.241,,,,0.4920989416
1747019968492259418,1.3,,,,0.4928690542
1747019968499960544,0.382,,,,0.4936391668
1747019968507661670,-0.615,,,,0.4944092794
1747019968515362796,-0.748,,,,0.495179392
1747019968523063922,-0.402,,,,0.4959495046
1747019968530765048,-0.247,,,,0.4967196172
1747019968538466174,-0.164,,,,0.4974897298
1747019968546167300,-0.017,,,,0.4982598424
1747019968553868426,0.019,,,,0.499029955
1747019968561569552,-0.002,,,,0.4998000676
1747019968569270678,0.024,,,,0.5005701802
1747019968576971804,0.051,,,,0.5013402928
1747019968584672930,0.046,,,,0.5021104054
1747019968592374056,0.053,,,,0.502880518
1747019968600075182,0.073,,,,0.5036506306
1747019968607776308,0.088,,,,0.5044207432
1747019968615477434,0.098,,,,0.5051908558
1747019968623178612,0.115,,,,0.5059609736
1747019968630879738,0.137,,,,0.5067310862
1747019968638580864,0.157,,,,0.5075011988
1747019968646281990,0.176,,,,0.5082713114
1747019968653983116,0.196,,,,0.509041424
1747019968661684242,0.22,,,,0.5098115366
1747019968669385368,0.247,,,,0.5105816492
1747019968677086494,0.277,,,,0.5113517618
1747019968684787620,0.306,,,,0.5121218744
1747019968692488746,0.326,,,,0.512891987
1747019968700189872,0.343,,,,0.5136620996
1747019968707890998,0.35,,,,0.5144322122
1747019968715592124,0.35,,,,0.5152023248
1747019968723293250,0.343,,,,0.5159724374
1747019968730994376,0.323,,,,0.51674255
1747019968738695502,0.291,,,,0.5175126626
1747019968746396628,0.24,,,,0.5182827752
1747019968754097754,0.164,,,,0.5190528878
1747019968761798880,0.08,,,,0.5198230004
1747019968769500006,0.002,,,,0.520593113
1747019968777201132,-0.066,,,,0.5213632256
1747019968784902258,-0.115,,,,0.5221333382
1747019968792603384,-0.149,,,,0.5229034508
1747019968800304510,-0.169,,,,0.5236735634
1747019968808005636,-0.179,,,,0.524443676
1747019968815706762,-0.179,,,,0.5252137886
1747019968823407888,-0.174,,,,0.5259839012
1747019968831109014,-0.166,,,,0.5267540138
1747019968838810140,-0.159,,,,0.5275241264
1747019968846511266,-0.152,,,,0.528294239
1747019968854212392,-0.137,,,,0.5290643516
1747019968861913518,-0.12,,,,0.5298344642
1747019968869614644,-0.11,,,,0.5306045768
1747019968877315770,-0.105,,,,0.5313746894
1747019968885016896,-0.09,,,,0.532144802
1747019968892718022,-0.08,,,,0.5329149146
1747019968900419148,-0.073,,,,0.5336850272
1747019968908120274,-0.068,,,,0.5344551398
1747019968915821400,-0.066,,,,0.5352252524
1747019968923522526,-0.058,,,,0.535995365
1747019968931223652,-0.056,,,,0.5367654776
1747019968938924778,-0.056,,,,0.5375355902
1747019968946625904,-0.058,,,,0.5383057028
1747019968954327030,-0.061,,,,0.5390758154
1747019968962028156,-0.063,,,,0.539845928
1747019968969729282,-0.068,,,,0.5406160406
1747019968977430408,-0.071,,,,0.5413861532
1747019968985131534,-0.073,,,,0.5421562658
1747019968992832660,-0.073,,,,0.5429263784
1747019969000533786,-0.068,,,,0.543696491
1747019969008234912,-0.071,,,,0.5444666036
1747019969015936038,-0.076,,,,0.5452367162
1747019969023637164,-0.073,,,,0.5460068288
1747019969031338290,-0.071,,,,0.5467769414
1747019969039039416,-0.071,,,,0.547547054
1747019969046740542,-0.073,,,,0.5483171666
1747019969054441668,-0.071,,,,0.5490872792
1747019969062142794,-0.063,,,,0.5498573918
1747019969069843920,-0.066,,,,0.5506275044
1747019969077545046,-0.071,,,,0.551397617
1747019969085246172,-0.066,,,,0.5521677296
1747019969092947298,-0.066,,,,0.5529378422
1747019969100648424,-0.061,,,,0.5537079548
1747019969108349550,-0.063,,,,0.5544780674
1747019969116050676,-0.076,,,,0.55524818
1747019969123751802,-0.076,,,,0.5560182926
1747019969131452928,-0.058,,,,0.5567884052
1747019969139154054,-0.041,,,,0.5575585178
1747019969146855180,-0.019,,,,0.5583286304
1747019969154556306,-0.004,,,,0.559098743
1747019969162257432,-0.017,,,,0.5598688556
1747019969169958558,-0.039,,,,0.5606389682
1747019969177659684,-0.041,,,,0.5614090808
1747019969185360866,-0.036,68.0,884.0,,0.562179199
1747019969193061714,-0.041,,,,0.5629492838
1747019969200762562,-0.044,,,,0.5637193686
1747019969208463410,-0.036,,,,0.5644894534
1747019969216164258,-0.029,,,,0.5652595382
1747019969223865106,-0.029,,,,0.566029623
1747019969231565954,-0.044,,,,0.5667997078
1747019969239266802,-0.078,,,,0.5675697926
1747019969246967650,-0.024,,,,0.5683398774
1747019969254668498,0.343,,,,0.5691099622
1747019969262369346,1.032,,,,0.569880047
1747019969270070194,1.42,,,,0.5706501318
1747019969277771042,0.8140000000000001,,,,0.5714202166
1747019969285471890,-0.328,,,,0.5721903014
1747019969293172738,-0.809,,,,0.5729603862
1747019969300873586,-0.515,,,,0.573730471
1747019969308574434,-0.264,,,,0.5745005558
1747019969316275282,-0.206,,,,0.5752706406
1747019969323976130,-0.066,,,,0.5760407254
1747019969331676978,0.017,,,,0.5768108102
1747019969339377826,-0.012,,,,0.577580895
1747019969347078674,0.002,,,,0.5783509798
1747019969354779522,0.039,,,,0.5791210646
1747019969362480370,0.041,,,,0.5798911494
1747019969370181218,0.041,,,,0.5806612342
1747019969377882066,0.058,,,,0.581431319
1747019969385582914,0.076,,,,0.5822014038
1747019969393283762,0.088,,,,0.5829714886
1747019969400984610,0.105,,,,0.5837415734
1747019969408685458,0.117,,,,0.5845116582
1747019969416386306,0.132,,,,0.585281743
1747019969424087154,0.152,,,,0.5860518278
1747019969431788002,0.171,,,,0.5868219126
1747019969439488850,0.191,,,,0.5875919974
1747019969447189698,0.215,,,,0.5883620822
1747019969454890546,0.245,,,,0.589132167
1747019969462591394,0.277,,,,0.5899022518
1747019969470292242,0.301,,,,0.5906723366
1747019969477993090,0.321,,,,0.5914424214
1747019969485693938,0.331,,,,0.5922125062
1747019969493394786,0.331,,,,0.592982591
1747019969501095634,0.326,,,,0.5937526758
1747019969508796482,0.314,,,,0.5945227606
1747019969516497330,0.291,,,,0.5952928454
1747019969524198178,0.247,,,,0.5960629302
1747019969531899026,0.174,,,,0.596833015
1747019969539599874,0.095,,,,0.5976030998
1747019969547300722,0.024,,,,0.5983731846
1747019969555001570,-0.046,,,,0.5991432694
1747019969562702418,-0.103,,,,0.5999133542
1747019969570403266,-0.144,,,,0.600683439
1747019969578104114,-0.169,,,,0.6014535238
1747019969585804962,-0.184,,,,0.6022236086
1747019969593505810,-0.188,,,,0.6029936934
1747019969601206658,-0.179,,,,0.6037637782
1747019969608907506,-0.169,,,,0.604533863
1747019969616608354,-0.161,,,,0.6053039478
1747019969624309202,-0.152,,,,0.6060740326
1747019969632010050,-0.142,,,,0.6068441174
1747019969639710898,-0.13,,,,0.6076142022
1747019969647411746,-0.117,,,,0.608384287
1747019969655112594,-0.107,,,,0.6091543718
1747019969662813442,-0.098,,,,0.6099244566
1747019969670514290,-0.088,,,,0.6106945414
1747019969678215138,-0.073,,,,0.6114646262
1747019969685915986,-0.068,,,,0.612234711
1747019969693616834,-0.071,,,,0.6130047958
1747019969701317682,-0.061,,,,0.6137748806
1747019969709018530,-0.056,,,,0.6145449654
1747019969716719378,-0.063,,,,0.6153150502
1747019969724420226,-0.061,,,,0.616085135
1747019969732121074,-0.058,,,,0.6168552198
1747019969739821922,-0.063,,,,0.6176253046
1747019969747522772,-0.073,,,,0.6183953896
1747019969755223759,-0.073,,,,0.6191654883
1747019969762924746,-0.071,,,,0.619935587
1747019969770625733,-0.071,,,,0.6207056857
1747019969778326720,-0.073,,,,0.6214757844
1747019969786027707,-0.076,,,,0.6222458831
1747019969793728694,-0.076,,,,0.6230159818
1747019969801429681,-0.076,,,,0.6237860805
1747019969809130668,-0.076,,,,0.6245561792
1747019969816831655,-0.073,,,,0.6253262779
1747019969824532642,-0.071,,,,0.6260963766
1747019969832233629,-0.073,,,,0.6268664753
1747019969839934616,-0.071,,,,0.627636574
1747019969847635603,-0.063,,,,0.6284066727
1747019969855336590,-0.061,,,,0.6291767714
1747019969863037577,-0.066,,,,0.6299468701
1747019969870738564,-0.068,,,,0.6307169688
1747019969878439551,-0.063,,,,0.6314870675
1747019969886140538,-0.071,,,,0.6322571662
1747019969893841525,-0.078,,,,0.6330272649
1747019969901542512,-0.068,,,,0.6337973636
1747019969909243499,-0.049,,,,0.6345674623
1747019969916944486,-0.026,,,,0.635337561
1747019969924645473,-0.009,,,,0.6361076597
1747019969932346460,-0.014,,,,0.6368777584
1747019969940047447,-0.034,,,,0.6376478571
1747019969947748434,-0.053,,,,0.6384179558
1747019969955449421,-0.049,,,,0.6391880545
1747019969963150408,-0.034,,,,0.6399581532
1747019969970851395,-0.044,,,,0.6407282519
1747019969978552382,-0.049,,,,0.6414983506
1747019969986253369,-0.039,,,,0.6422684493
1747019969993954356,-0.041,,,,0.643038548
1747019970001655343,-0.049,,,,0.6438086467
1747019970009356330,-0.073,,,,0.6445787454
1747019970017057317,-0.088,,,,0.6453488441
1747019970024758304,0.107,,,,0.6461189428
1747019970032459291,0.679,,,,0.6468890415
1747019970040160278,1.305,,,,0.6476591402
1747019970047861265,1.202,,,,0.6484292389
1747019970055562252,0.206,,,,0.6491993376
1747019970063263239,-0.684,,,,0.6499694363
1747019970070964226,-0.711,,,,0.650739535
1747019970078665213,-0.385,,,,0.6515096337
1747019970086366200,-0.252,,,,0.6522797324
1747019970094067187,-0.144,,,,0.6530498311
1747019970101768174,-0.007,,,,0.6538199298
1747019970109469161,0.002,,,,0.6545900285
1747019970117170148,-0.019,,,,0.6553601272
1747019970124871135,0.019,,,,0.6561302259
1747019970132572122,0.046,,,,0.6569003246
1747019970140273109,0.046,,,,0.6576704233
1747019970147974096,0.053,,,,0.658440522
1747019970155675083,0.068,,,,0.6592106207
1747019970163376070,0.085,,,,0.6599807194
1747019970171077057,0.1,,,,0.6607508181
1747019970178778044,0.115,,,,0.6615209168
1747019970186479031,0.13,,,,0.6622910155
1747019970194180018,0.147,,,,0.6630611142
1747019970201881005,0.169,,,,0.6638312129
1747019970209581992,0.188,,,,0.6646013116
1747019970217282979,0.211,,,,0.6653714103
1747019970224983966,0.247,,,,0.666141509
1747019970232684953,0.274,,,,0.6669116077
1747019970240385940,0.291,,,,0.6676817064
1747019970248086927,0.311,,,,0.6684518051
1747019970255787914,0.333,,,,0.6692219038
1747019970263488901,0.341,,,,0.6699920025
1747019970271189888,0.331,,,,0.6707621012
1747019970278890875,0.331,,,,0.6715321999
1747019970286591862,0.316,,,,0.6723022986
1747019970294292849,0.269,,,,0.6730723973
1747019970301993836,0.213,,,,0.673842496
1747019970309694848,0.139,68.0,841.0,,0.6746125972
1747019970317395974,0.061,,779.0,,0.6753827098
1747019970325097100,-0.014,,,,0.6761528224
1747019970332798226,-0.08,,,,0.676922935
1747019970340499352,-0.134,,,,0.6776930476
1747019970348200478,-0.166,,,,0.6784631602
1747019970355901604,-0.181,,,,0.6792332728
1747019970363602730,-0.181,,,,0.6800033854
1747019970371303856,-0.181,,,,0.680773498
1747019970379004982,-0.179,,,,0.6815436106
1747019970386706108,-0.174,,,,0.6823137232
1747019970394407234,-0.164,,,,0.6830838358
1747019970402108360,-0.147,,,,0.6838539484
1747019970409809486,-0.134,,,,0.684624061
1747019970417510612,-0.13,,,,0.6853941736
1747019970425211738,-0.117,,,,0.6861642862
1747019970432912864,-0.103,,,,0.6869343988
1747019970440613990,-0.095,,,,0.6877045114
1747019970448315116,-0.09,,,,0.688474624
1747019970456016242,-0.073,,,,0.6892447366
1747019970463717368,-0.056,,,,0.6900148492
1747019970471418494,-0.053,,,,0.6907849618
1747019970479119620,-0.056,,,,0.6915550744
1747019970486820746,-0.046,,,,0.692325187
1747019970494521872,-0.044,,,,0.6930952996
1747019970502222998,-0.051,,,,0.6938654122
1747019970509924124,-0.058,,,,0.6946355248
1747019970517625250,-0.063,,,,0.6954056374
1747019970525326376,-0.066,,,,0.69617575
1747019970533027502,-0.066,,,,0.6969458626
1747019970540728628,-0.063,,,,0.6977159752
1747019970548429754,-0.068,,,,0.6984860878
1747019970556130880,-0.066,,,,0.6992562004
1747019970563832006,-0.058,,,,0.700026313
1747019970571533132,-0.061,,,,0.7007964256
1747019970579234258,-0.068,,,,0.7015665382
1747019970586935384,-0.068,,,,0.7023366508
1747019970594636510,-0.058,,,,0.7031067634
1747019970602337636,-0.053,,,,0.703876876
1747019970610038762,-0.058,,,,0.7046469886
1747019970617739888,-0.058,,,,0.7054171012
1747019970625441014,-0.049,,,,0.7061872138
1747019970633142140,-0.046,,,,0.7069573264
1747019970640843266,-0.061,,,,0.707727439
1747019970648544392,-0.073,,,,0.7084975516
1747019970656245518,-0.061,,,,0.7092676642
1747019970663946644,-0.041,,,,0.7100377768
1747019970671647770,-0.029,,,,0.7108078894
1747019970679348896,-0.004,,,,0.711578002
1747019970687050022,0.007,,,,0.7123481146
1747019970694751148,-0.014,,,,0.7131182272
1747019970702452274,-0.036,,,,0.7138883398
1747019970710153400,-0.039,,,,0.7146584524
1747019970717854526,-0.034,,,,0.715428565
1747019970725555652,-0.029,,,,0.7161986776
1747019970733256778,-0.029,,,,0.7169687902
1747019970740957904,-0.031,,,,0.7177389028
1747019970748659030,-0.034,,,,0.7185090154
1747019970756360156,-0.034,,,,0.719279128
1747019970764061282,-0.051,,,,0.7200492406
1747019970771762408,-0.08,,,,0.7208193532
1747019970779463534,0.034,,,,0.7215894658
1747019970787164660,0.52,,,,0.7223595784
1747019970794865786,1.202,,,,0.723129691
1747019970802566912,1.347,,,,0.7238998036
1747019970810268038,0.52,,,,0.7246699162
1747019970817969164,-0.507,,,,0.7254400288
1747019970825670290,-0.753,,,,0.7262101414
1747019970833371416,-0.444,,,,0.726980254
1747019970841072542,-0.264,,,,0.7277503666
1747019970848773668,-0.186,,,,0.7285204792
1747019970856474794,-0.031,,,,0.7292905918
1747019970864175920,0.024,,,,0.7300607044
1747019970871877098,-0.007,,,,0.7308308222
1747019970879578224,0.019,,,,0.7316009348
1747019970887279350,0.056,,,,0.7323710474
1747019970894980476,0.051,,,,0.73314116
1747019970902681602,0.056,,,,0.7339112726
1747019970910382728,0.078,,,,0.7346813852
1747019970918083854,0.09,,,,0.7354514978
1747019970925784980,0.095,,,,0.7362216104
1747019970933486106,0.11,,,,0.736991723
1747019970941187232,0.134,,,,0.7377618356
1747019970948888358,0.149,,,,0.7385319482
1747019970956589484,0.166,,,,0.7393020608
1747019970964290610,0.193,,,,0.7400721734
1747019970971991736,0.213,,,,0.740842286
1747019970979692862,0.242,,,,0.7416123986
1747019970987393988,0.277,,,,0.7423825112
1747019970995095114,0.304,,,,0.7431526238
1747019971002796240,0.323,,,,0.7439227364
1747019971010497366,0.338,,,,0.744692849
1747019971018198492,0.348,,,,0.7454629616
1747019971025899618,0.35,,,,0.7462330742
1747019971033600744,0.341,,,,0.7470031868
1747019971041301870,0.318,,,,0.7477732994
1747019971049002996,0.282,,,,0.748543412
1747019971056704122,0.225,,,,0.7493135246
1747019971064405248,0.152,,,,0.7500836372
1747019971072106374,0.068,,,,0.7508537498
1747019971079807500,-0.009,,,,0.7516238624
1747019971087508626,-0.078,,,,0.752393975
1747019971095209752,-0.132,,,,0.7531640876
1747019971102910878,-0.164,,,,0.7539342002
1747019971110612004,-0.179,,,,0.7547043128
1747019971118313130,-0.186,,,,0.7554744254
1747019971126014256,-0.191,,,,0.756244538
1747019971133715382,-0.186,,,,0.7570146506
1747019971141416508,-0.176,,,,0.7577847632
1747019971149117634,-0.166,,,,0.7585548758
1747019971156818760,-0.157,,,,0.7593249884
1747019971164519886,-0.142,,,,0.760095101
1747019971172221012,-0.13,,,,0.7608652136
1747019971179922138,-0.125,,,,0.7616353262
1747019971187623264,-0.115,,,,0.7624054388
1747019971195324390,-0.1,,,,0.7631755514
1747019971203025516,-0.085,,,,0.763945664
1747019971210726642,-0.078,,,,0.7647157766
1747019971218427768,-0.068,,,,0.7654858892
1747019971226128894,-0.061,,,,0.7662560018
1747019971233830020,-0.058,,,,0.7670261144
1747019971241531146,-0.058,,,,0.767796227
1747019971249232272,-0.058,,,,0.7685663396
1747019971256933398,-0.056,,,,0.7693364522
1747019971264634524,-0.056,,,,0.7701065648
1747019971272335650,-0.066,,,,0.7708766774
1747019971280036776,-0.071,,,,0.77164679
1747019971287737902,-0.071,,,,0.7724169026
1747019971295439028,-0.073,,,,0.7731870152
1747019971303140154,-0.076,,,,0.7739571278
1747019971310841280,-0.078,,,,0.7747272404
1747019971318542406,-0.078,,,,0.775497353
1747019971326243532,-0.076,,,,0.7762674656
1747019971333944658,-0.076,,,,0.7770375782
1747019971341645784,-0.073,,,,0.7778076908
1747019971349346910,-0.071,,,,0.7785778034
1747019971357048036,-0.066,,,,0.779347916
1747019971364749162,-0.061,,,,0.7801180286
1747019971372450288,-0.061,,,,0.7808881412
1747019971380151414,-0.061,,,,0.7816582538
1747019971387852540,-0.061,,,,0.7824283664
1747019971395553666,-0.061,,,,0.783198479
1747019971403254792,-0.056,,,,0.7839685916
1747019971410955918,-0.053,,,,0.7847387042
1747019971418657044,-0.051,,,,0.7855088168
1747019971426358170,-0.049,,,,0.7862789294
1747019971434059348,-0.049,68.0,780.0,,0.7870490472
1747019971441760474,-0.056,,,,0.7878191598
1747019971449461600,-0.068,,,,0.7885892724
1747019971457162726,-0.066,,,,0.789359385
1747019971464863852,-0.046,,,,0.7901294976
1747019971472564978,-0.039,,,,0.7908996102
1747019971480266104,-0.026,,,,0.7916697228
1747019971487967230,0.0,,,,0.7924398354
1747019971495668356,0.0,,,,0.793209948
1747019971503369482,-0.024,,,,0.7939800606
1747019971511070608,-0.031,,,,0.7947501732
1747019971518771734,-0.024,,,,0.7955202858
1747019971526472860,-0.031,,,,0.7962903984
1747019971534173986,-0.041,,,,0.797060511
1747019971541875112,-0.034,,,,0.7978306236
1747019971549576238,-0.024,,,,0.7986007362
1747019971557277364,-0.024,,,,0.7993708488
1747019971564978490,-0.036,,,,0.8001409614
1747019971572679616,-0.071,,,,0.800911074
1747019971580380742,-0.061,,,,0.8016811866
1747019971588081868,0.203,,,,0.8024512992
1747019971595782994,0.853,,,,0.8032214118
1747019971603484120,1.43,,,,0.8039915244
1747019971611185246,1.128,,,,0.804761637
1747019971618886372,0.014,,,,0.8055317496
1747019971626587498,-0.753,,,,0.8063018622
1747019971634288624,-0.62,,,,0.8070719748
1747019971641989750,-0.299,,,,0.8078420874
1747019971649690876,-0.22,,,,0.8086122
1747019971657392002,-0.11,,,,0.8093823126
1747019971665093128,0.009,,,,0.8101524252
1747019971672794254,-0.004,,,,0.8109225378
1747019971680495380,-0.012,,,,0.8116926504
1747019971688196506,0.034,,,,0.812462763
1747019971695897632,0.044,,,,0.8132328756
1747019971703598758,0.041,,,,0.8140029882
1747019971711299884,0.056,,,,0.8147731008
1747019971719001010,0.073,,,,0.8155432134
1747019971726702136,0.083,,,,0.816313326
1747019971734403262,0.095,,,,0.8170834386
1747019971742104388,0.11,,,,0.8178535512
1747019971749805514,0.125,,,,0.8186236638
1747019971757506640,0.149,,,,0.8193937764
1747019971765207766,0.174,,,,0.820163889
1747019971772908892,0.193,,,,0.8209340016
1747019971780610018,0.22,,,,0.8217041142
1747019971788311144,0.252,,,,0.8224742268
1747019971796012270,0.279,,,,0.8232443394
1747019971803713396,0.309,,,,0.824014452
1747019971811414522,0.336,,,,0.8247845646
1747019971819115648,0.353,,,,0.8255546772
1747019971826816774,0.363,,,,0.8263247898
1747019971834517900,0.365,,,,0.8270949024
1747019971842219026,0.358,,,,0.827865015
1747019971849920152,0.336,,,,0.8286351276
1747019971857621278,0.294,,,,0.8294052402
1747019971865322404,0.225,,,,0.8301753528
1747019971873023530,0.137,,,,0.8309454654
1747019971880724656,0.046,,,,0.831715578
1747019971888425782,-0.031,,,,0.8324856906
1747019971896126908,-0.098,,,,0.8332558032
1747019971903828034,-0.149,,,,0.8340259158
1747019971911529160,-0.191,,,,0.8347960284
1747019971919230286,-0.206,,,,0.835566141
1747019971926931412,-0.206,,,,0.8363362536
1747019971934632538,-0.206,,,,0.8371063662
1747019971942333664,-0.198,,,,0.8378764788
1747019971950034790,-0.188,,,,0.8386465914
1747019971957735916,-0.179,,,,0.839416704
1747019971965437042,-0.169,,,,0.8401868166
1747019971973138168,-0.159,,,,0.8409569292
1747019971980839294,-0.147,,,,0.8417270418
1747019971988540420,-0.139,,,,0.8424971544
1747019971996241598,-0.132,69.0,773.0,,0.8432672722
1747019972003942306,-0.12,,,,0.844037343
1747019972011643014,-0.112,,,,0.8448074138
1747019972019343722,-0.103,,,,0.8455774846
1747019972027044430,-0.09,,,,0.8463475554
1747019972034745138,-0.083,,,,0.8471176262
1747019972042445846,-0.076,,,,0.847887697
1747019972050146554,-0.076,,,,0.8486577678
1747019972057847262,-0.073,,,,0.8494278386
1747019972065547970,-0.076,,,,0.8501979094
1747019972073248678,-0.078,,,,0.8509679802
1747019972080949386,-0.076,,,,0.851738051
1747019972088650094,-0.076,,,,0.8525081218
1747019972096350802,-0.08,,,,0.8532781926
1747019972104051510,-0.076,,,,0.8540482634
1747019972111752218,-0.076,,,,0.8548183342
1747019972119452926,-0.085,,,,0.855588405
1747019972127153634,-0.085,,,,0.8563584758
1747019972134854342,-0.083,,,,0.8571285466
1747019972142555050,-0.083,,,,0.8578986174
1747019972150255758,-0.085,,,,0.8586686882
1747019972157956466,-0.078,,,,0.859438759
1747019972165657174,-0.071,,,,0.8602088298
1747019972173357882,-0.068,,,,0.8609789006
1747019972181058590,-0.063,,,,0.8617489714
1747019972188759298,-0.058,,,,0.8625190422
1747019972196460006,-0.066,,,,0.863289113
1747019972204160714,-0.063,,,,0.8640591838
1747019972211861422,-0.058,,,,0.8648292546
1747019972219562130,-0.058,,,,0.8655993254
1747019972227262838,-0.061,,,,0.8663693962
1747019972234963546,-0.061,,,,0.867139467
1747019972242664254,-0.046,,,,0.8679095378
1747019972250364962,-0.041,,,,0.8686796086
1747019972258065670,-0.049,,,,0.8694496794
1747019972265766378,-0.046,,,,0.8702197502
1747019972273467086,-0.044,,,,0.870989821
1747019972281167794,-0.046,,,,0.8717598918
1747019972288868502,-0.053,,,,0.8725299626
1747019972296569210,-0.056,,,,0.8733000334
1747019972304269918,-0.044,,,,0.8740701042
1747019972311970626,-0.029,,,,0.874840175
1747019972319671334,-0.012,,,,0.8756102458
1747019972327372042,0.004,,,,0.8763803166
1747019972335072750,0.0,,,,0.8771503874
1747019972342773458,-0.019,,,,0.8779204582
1747019972350474166,-0.029,,,,0.878690529
1747019972358174874,-0.024,,,,0.8794605998
1747019972365875582,-0.017,,,,0.8802306706
1747019972373576290,-0.024,,,,0.8810007414
1747019972381276998,-0.026,,,,0.8817708122
1747019972388977706,-0.022,,,,0.882540883
1747019972396678414,-0.017,,,,0.8833109538
1747019972404379122,-0.024,,,,0.8840810246
1747019972412079830,-0.066,,,,0.8848510954
1747019972419780538,-0.049,,,,0.8856211662
1747019972427481246,0.274,,,,0.886391237
1747019972435181954,0.974,,,,0.8871613078
1747019972442882662,1.481,,,,0.8879313786
1747019972450583370,1.02,,,,0.8887014494
1747019972458284078,-0.142,,,,0.8894715202
1747019972465984786,-0.794,,,,0.890241591
1747019972473685494,-0.559,,,,0.8910116618
1747019972481386202,-0.252,,,,0.8917817326
1747019972489086910,-0.201,,,,0.8925518034
1747019972496787618,-0.083,,,,0.8933218742
1747019972504488326,0.026,,,,0.894091945
1747019972512189034,-0.002,,,,0.8948620158
1747019972519889742,0.0,,,,0.8956320866
1747019972527590450,0.044,,,,0.8964021574
1747019972535291158,0.044,,,,0.8971722282
1747019972542991866,0.046,,,,0.897942299
1747019972550692574,0.068,,,,0.8987123698
1747019972558393334,0.08,,,,0.8994824458
1747019972566094460,0.095,,,,0.9002525584
1747019972573795586,0.112,,,,0.901022671
1747019972581496712,0.127,,,,0.9017927836
1747019972589197838,0.144,,,,0.9025628962
1747019972596898964,0.166,,,,0.9033330088
1747019972604600090,0.193,,,,0.9041031214
1747019972612301216,0.218,,,,0.904873234
1747019972620002342,0.242,,,,0.9056433466
1747019972627703468,0.277,,,,0.9064134592
1747019972635404594,0.314,,,,0.9071835718
1747019972643105720,0.348,,,,0.9079536844
1747019972650806846,0.372,,,,0.908723797
1747019972658507972,0.392,,,,0.9094939096
1747019972666209098,0.407,,,,0.9102640222
1747019972673910224,0.407,,,,0.9110341348
1747019972681611350,0.395,,,,0.9118042474
1747019972689312476,0.368,,,,0.91257436
1747019972697013602,0.321,,,,0.9133444726
1747019972704714728,0.247,,,,0.9141145852
1747019972712415854,0.144,,,,0.9148846978
1747019972720116980,0.046,,,,0.9156548104
1747019972727818106,-0.034,,,,0.916424923
1747019972735519232,-0.103,,,,0.9171950356
1747019972743220358,-0.154,,,,0.9179651482
1747019972750921484,-0.188,,,,0.9187352608
1747019972758622610,-0.203,,,,0.9195053734
1747019972766323736,-0.203,,,,0.920275486
1747019972774024862,-0.203,,,,0.9210455986
1747019972781725988,-0.191,,,,0.9218157112
1747019972789427114,-0.184,,,,0.9225858238
1747019972797128240,-0.179,,,,0.9233559364
1747019972804829366,-0.166,,,,0.924126049
1747019972812530492,-0.152,,,,0.9248961616
1747019972820231618,-0.144,,,,0.9256662742
1747019972827932744,-0.134,,,,0.9264363868
1747019972835633870,-0.125,,,,0.9272064994
1747019972843334996,-0.1,,,,0.927976612
1747019972851036122,-0.085,,,,0.9287467246
1747019972858737248,-0.08,,,,0.9295168372
1747019972866438374,-0.068,,,,0.9302869498
1747019972874139500,-0.058,,,,0.9310570624
1747019972881840626,-0.049,,,,0.931827175
1747019972889541752,-0.036,,,,0.9325972876
1747019972897242878,-0.036,,,,0.9333674002
1747019972904944004,-0.036,,,,0.9341375128
1747019972912645130,-0.031,,,,0.9349076254
1747019972920346256,-0.026,,,,0.935677738
1747019972928047382,-0.026,,,,0.9364478506
1747019972935748508,-0.036,,,,0.9372179632
1747019972943449634,-0.039,,,,0.9379880758
1747019972951150760,-0.034,,,,0.9387581884
1747019972958851886,-0.029,,,,0.939528301
1747019972966553012,-0.019,,,,0.9402984136
1747019972974254138,-0.026,,,,0.9410685262
1747019972981955264,-0.039,,,,0.9418386388
1747019972989656390,-0.034,,,,0.9426087514
1747019972997357516,-0.036,,,,0.943378864
1747019973005058642,-0.036,,,,0.9441489766
1747019973012759768,-0.022,,,,0.9449190892
1747019973020460894,-0.012,,,,0.9456892018
1747019973028162020,-0.007,,,,0.9464593144
1747019973035863146,-0.002,,,,0.947229427
1747019973043564272,0.004,,,,0.9479995396
1747019973051265398,0.019,,,,0.9487696522
1747019973058966524,0.019,,,,0.9495397648
1747019973066667650,-0.002,,,,0.9503098774
1747019973074368776,0.004,,,,0.95107999
1747019973082069902,0.026,,,,0.9518501026
1747019973089771028,0.034,,,,0.9526202152
1747019973097472154,0.039,,,,0.9533903278
1747019973105173280,0.053,,,,0.9541604404
1747019973112874406,0.061,,,,0.954930553
1747019973120575584,0.068,70.0,757.0,,0.9557006708
1747019973128276710,0.073,,,,0.9564707834
1747019973135977836,0.073,,,,0.957240896
1747019973143678962,0.08,,,,0.9580110086
1747019973151380088,0.083,,,,0.9587811212
1747019973159081214,0.083,,,,0.9595512338
1747019973166782340,0.093,,,,0.9603213464
1747019973174483466,0.103,,,,0.961091459
1747019973182184592,0.103,,,,0.9618615716
1747019973189885718,0.1,,,,0.9626316842
1747019973197586844,0.095,,,,0.9634017968
1747019973205287970,0.09,,,,0.9641719094
1747019973212989096,0.08,,,,0.964942022
1747019973220690222,0.071,,,,0.9657121346
1747019973228391348,0.068,,,,0.9664822472
1747019973236092474,0.068,,,,0.9672523598
1747019973243793600,0.076,,,,0.9680224724
1747019973251494726,0.093,,,,0.968792585
1747019973259195852,0.103,,,,0.9695626976
1747019973266896978,0.103,,,,0.9703328102
1747019973274598104,0.095,,,,0.9711029228
1747019973282299230,0.058,,,,0.9718730354
1747019973290000356,0.017,,,,0.972643148
1747019973297701482,0.034,,,,0.9734132606
1747019973305402608,0.078,,,,0.9741833732
1747019973313103734,0.085,,,,0.9749534858
1747019973320804860,0.115,,,,0.9757235984
1747019973328505986,0.179,,,,0.976493711
1747019973336207112,0.085,,,,0.9772638236
1747019973343908238,-0.083,,,,0.9780339362
1747019973351609364,0.041,,,,0.9788040488
1747019973359310490,0.498,,,,0.9795741614
1747019973367011616,1.15,,,,0.980344274
1747019973374712742,1.575,,,,0.9811143866
1747019973382413868,1.035,,,,0.9818844992
1747019973390114994,-0.134,,,,0.9826546118
1747019973397816120,-0.637,,,,0.9834247244
1747019973405517246,-0.321,,,,0.984194837
1747019973413218372,-0.076,,,,0.9849649496
1747019973420919498,-0.036,,,,0.9857350622
1747019973428620624,0.095,,,,0.9865051748
1747019973436321750,0.179,,,,0.9872752874
1747019973444022876,0.159,,,,0.9880454
1747019973451724002,0.184,,,,0.9888155126
1747019973459425128,0.22,,,,0.9895856252
1747019973467126254,0.22,,,,0.9903557378
1747019973474827380,0.22,,,,0.9911258504
1747019973482528506,0.235,,,,0.991895963
1747019973490229632,0.247,,,,0.9926660756
1747019973497930758,0.274,,,,0.9934361882
1747019973505631884,0.296,,,,0.9942063008
1747019973513333010,0.279,,,,0.9949764134
1747019973521034136,0.26,,,,0.995746526
1747019973528735262,0.287,,,,0.9965166386
1747019973536436388,0.316,,,,0.9972867512
1747019973544137514,0.296,,,,0.9980568638
1747019973551838640,0.289,,,,0.9988269764
1747019973559539766,0.348,,,,0.999597089
1747019973567240892,0.382,,,,1.0003672016
1747019973574942018,0.318,,,,1.0011373142
1747019973582643144,0.291,,,,1.0019074268
1747019973590344270,0.419,,,,1.0026775394
1747019973598045396,0.559,,,,1.003447652
1747019973605746522,0.466,,,,1.0042177646
1747019973613447648,0.262,,,,1.0049878772
1747019973621148774,0.296,,,,1.0057579898
1747019973628849900,0.412,,,,1.0065281024
1747019973636551026,0.343,,,,1.007298215
1747019973644252152,0.228,,,,1.0080683276
1747019973651953278,0.188,,,,1.0088384402
1747019973659654404,0.139,,,,1.0096085528
1747019973667355530,0.08,,,,1.0103786654
1747019973675056656,0.053,,,,1.011148778
1747019973682757834,0.041,,,,1.0119188958
1747019973690458960,0.051,,,,1.0126890084
1747019973698160086,0.073,,,,1.013459121
1747019973705861212,0.068,,,,1.0142292336
1747019973713562338,0.063,,,,1.0149993462
1747019973721263464,0.083,,,,1.0157694588
1747019973728964590,0.1,,,,1.0165395714
1747019973736665716,0.107,,,,1.017309684
1747019973744366842,0.11,,,,1.0180797966
1747019973752067968,0.117,,,,1.0188499092
1747019973759769094,0.147,,,,1.0196200218
1747019973767470220,0.147,,,,1.0203901344
1747019973775171346,0.103,,,,1.021160247
1747019973782872472,0.12,,,,1.0219303596
1747019973790573598,0.184,,,,1.0227004722
1747019973798274724,0.193,,,,1.0234705848
1747019973805975850,0.186,,,,1.0242406974
1747019973813676976,0.213,,,,1.02501081
1747019973821378102,0.208,,,,1.0257809226
1747019973829079228,0.184,,,,1.0265510352
1747019973836780354,0.196,,,,1.0273211478
1747019973844481480,0.174,,,,1.0280912604
1747019973852182606,0.13,,,,1.028861373
1747019973859883732,0.093,,,,1.0296314856
1747019973867584858,0.08,,,,1.0304015982
1747019973875285984,0.125,,,,1.0311717108
1747019973882987110,0.152,,,,1.0319418234
1747019973890688236,0.144,,,,1.032711936
1747019973898389362,0.164,,,,1.0334820486
1747019973906090488,0.184,,,,1.0342521612
1747019973913791614,0.191,,,,1.0350222738
1747019973921492740,0.211,,,,1.0357923864
1747019973929193866,0.22,,,,1.036562499
1747019973936894992,0.213,,,,1.0373326116
1747019973944596118,0.213,,,,1.0381027242
1747019973952297244,0.208,,,,1.0388728368
1747019973959998370,0.206,,,,1.0396429494
1747019973967699496,0.208,,,,1.040413062
1747019973975400622,0.203,,,,1.0411831746
1747019973983101748,0.203,,,,1.0419532872
1747019973990802874,0.198,,,,1.0427233998
1747019973998504000,0.201,,,,1.0434935124
1747019974006205126,0.186,,,,1.044263625
1747019974013906252,0.149,,,,1.0450337376
1747019974021607378,0.174,,,,1.0458038502
1747019974029308504,0.196,,,,1.0465739628
1747019974037009630,0.191,,,,1.0473440754
1747019974044710756,0.218,,,,1.048114188
1747019974052411882,0.206,,,,1.0488843006
1747019974060113008,0.154,,,,1.0496544132
1747019974067814134,0.11,,,,1.0504245258
1747019974075515260,0.1,,,,1.0511946384
1747019974083216386,0.127,,,,1.051964751
1747019974090917512,0.137,,,,1.0527348636
1747019974098618638,0.137,,,,1.0535049762
1747019974106319764,0.147,,,,1.0542750888
1747019974114020890,0.149,,,,1.0550452014
1747019974121722016,0.144,,,,1.055815314
1747019974129423142,0.139,,,,1.0565854266
1747019974137124268,0.134,,,,1.0573555392
1747019974144825394,0.132,,,,1.0581256518
1747019974152526520,0.122,,,,1.0588957644
1747019974160227646,0.117,,,,1.059665877
1747019974167928772,0.127,,,,1.0604359896
1747019974175629898,0.142,,,,1.0612061022
1747019974183331024,0.152,,,,1.0619762148
1747019974191032150,0.147,,,,1.0627463274
1747019974198733276,0.13,,,,1.06351644
1747019974206434402,0.115,,,,1.0642865526
1747019974214135528,0.088,,,,1.0650566652
1747019974221836654,0.066,,,,1.0658267778
1747019974229537780,0.066,,,,1.0665968904
1747019974237238906,0.044,,,,1.067367003
1747019974244940084,0.017,71.0,805.0,,1.0681371208
1747019974252641141,0.024,,,,1.0689072265
1747019974260342198,0.039,,,,1.0696773322
1747019974268043255,0.014,,,,1.0704474379
1747019974275744312,-0.002,,,,1.0712175436
1747019974283445369,0.157,,,,1.0719876493
1747019974291146426,0.677,,,,1.072757755
1747019974298847483,1.275,,,,1.0735278607
1747019974306548540,1.194,,,,1.0742979664
1747019974314249597,0.299,,,,1.0750680721
1747019974321950654,-0.547,,,,1.0758381778
1747019974329651711,-0.672,,,,1.0766082835
1747019974337352768,-0.385,,,,1.0773783892
1747019974345053825,-0.201,,,,1.0781484949
1747019974352754882,-0.1,,,,1.0789186006
1747019974360455939,0.019,,,,1.0796887063
1747019974368156996,0.053,,,,1.080458812
1747019974375858053,0.034,,,,1.0812289177
1747019974383559110,0.053,,,,1.0819990234
1747019974391260167,0.071,,,,1.0827691291
1747019974398961224,0.068,,,,1.0835392348
1747019974406662281,0.076,,,,1.0843093405
1747019974414363338,0.078,,,,1.0850794462
1747019974422064395,0.078,,,,1.0858495519
1747019974429765452,0.088,,,,1.0866196576
1747019974437466509,0.093,,,,1.0873897633
1747019974445167566,0.098,,,,1.088159869
1747019974452868623,0.105,,,,1.0889299747
1747019974460569680,0.112,,,,1.0897000804
1747019974468270737,0.125,,,,1.0904701861
1747019974475971794,0.132,,,,1.0912402918
1747019974483672851,0.147,,,,1.0920103975
1747019974491373908,0.171,,,,1.0927805032
1747019974499074965,0.174,,,,1.0935506089
1747019974506776022,0.161,,,,1.0943207146
1747019974514477079,0.179,,,,1.0950908203
1747019974522178136,0.201,,,,1.095860926
1747019974529879193,0.193,,,,1.0966310317
1747019974537580250,0.184,,,,1.0974011374
1747019974545281307,0.181,,,,1.0981712431
1747019974552982364,0.164,,,,1.0989413488
1747019974560683421,0.122,,,,1.0997114545
1747019974568384478,0.036,,,,1.1004815602
1747019974576085535,-0.061,,,,1.1012516659
1747019974583786592,-0.107,,,,1.1020217716
1747019974591487649,-0.098,,,,1.1027918773
1747019974599188706,-0.144,,,,1.103561983
1747019974606889763,-0.282,,,,1.1043320887
1747019974614590820,-0.35,,,,1.1051021944
1747019974622291877,-0.311,,,,1.1058723001
1747019974629992934,-0.284,,,,1.1066424058
1747019974637693991,-0.284,,,,1.1074125115
1747019974645395048,-0.267,,,,1.1081826172
1747019974653096105,-0.245,,,,1.1089527229
1747019974660797162,-0.238,,,,1.1097228286
1747019974668498219,-0.228,,,,1.1104929343
1747019974676199276,-0.203,,,,1.11126304
1747019974683900333,-0.181,,,,1.1120331457
1747019974691601390,-0.179,,,,1.1128032514
1747019974699302447,-0.169,,,,1.1135733571
1747019974707003504,-0.147,,,,1.1143434628
1747019974714704561,-0.139,,,,1.1151135685
1747019974722405618,-0.137,,,,1.1158836742
1747019974730106675,-0.13,,,,1.1166537799
1747019974737807732,-0.12,,,,1.1174238856
1747019974745508789,-0.12,,,,1.1181939913
1747019974753209846,-0.134,,,,1.118964097
1747019974760910903,-0.142,,,,1.1197342027
1747019974768611960,-0.134,,,,1.1205043084
1747019974776313017,-0.142,,,,1.1212744141
1747019974784014074,-0.166,,,,1.1220445198
1747019974791715131,-0.181,,,,1.1228146255
1747019974799416188,-0.179,,,,1.1235847312
1747019974807117251,-0.161,,,,1.1243548375
1747019974814818029,-0.166,,,,1.1251249153
1747019974822518807,-0.196,,,,1.1258949931
1747019974830219585,-0.159,,,,1.1266650709
1747019974837920363,-0.139,,,,1.1274351487
1747019974845621141,-0.191,,,,1.1282052265
1747019974853321919,-0.213,,,,1.1289753043
1747019974861022697,-0.211,,,,1.1297453821
1747019974868723475,-0.188,,,,1.1305154599
1747019974876424253,-0.154,,,,1.1312855377
1747019974884125031,-0.149,,,,1.1320556155
1747019974891825809,-0.139,,,,1.1328256933
1747019974899526587,-0.122,,,,1.1335957711
1747019974907227365,-0.115,,,,1.1343658489
1747019974914928143,-0.105,,,,1.1351359267
1747019974922628921,-0.095,,,,1.1359060045
1747019974930329699,-0.095,,,,1.1366760823
1747019974938030477,-0.095,,,,1.1374461601
1747019974945731255,-0.09,,,,1.1382162379
1747019974953432033,-0.088,,,,1.1389863157
1747019974961132811,-0.085,,,,1.1397563935
1747019974968833589,-0.08,,,,1.1405264713
1747019974976534367,-0.083,,,,1.1412965491
1747019974984235145,-0.083,,,,1.1420666269
1747019974991935923,-0.083,,,,1.1428367047
1747019974999636701,-0.083,,,,1.1436067825
1747019975007337479,-0.08,,,,1.1443768603
1747019975015038257,-0.083,,,,1.1451469381
1747019975022739035,-0.09,,,,1.1459170159
1747019975030439813,-0.083,,,,1.1466870937
1747019975038140591,-0.061,,,,1.1474571715
1747019975045841369,-0.036,,,,1.1482272493
1747019975053542147,-0.051,,,,1.1489973271
1747019975061242925,-0.105,,,,1.1497674049
1747019975068943703,-0.083,,,,1.1505374827
1747019975076644481,-0.046,,,,1.1513075605
1747019975084345259,-0.107,,,,1.1520776383
1747019975092046037,-0.098,,,,1.1528477161
1747019975099746815,-0.014,,,,1.1536177939
1747019975107447593,-0.029,,,,1.1543878717
1747019975115148371,-0.046,,,,1.1551579495
1747019975122849149,0.002,,,,1.1559280273
1747019975130549927,0.024,,,,1.1566981051
1747019975138250705,0.004,,,,1.1574681829
1747019975145951483,0.002,,,,1.1582382607
1747019975153652261,0.024,,,,1.1590083385
1747019975161353039,0.046,,,,1.1597784163
1747019975169053817,0.041,,,,1.1605484941
1747019975176754595,0.017,,,,1.1613185719
1747019975184455373,0.056,,,,1.1620886497
1747019975192156151,0.316,,,,1.1628587275
1747019975199856929,0.863,,,,1.1636288053
1747019975207557707,1.371,,,,1.1643988831
1747019975215258485,1.18,,,,1.1651689609
1747019975222959263,0.215,,,,1.1659390387
1747019975230660041,-0.5740000000000001,,,,1.1667091165
1747019975238360819,-0.583,,,,1.1674791943
1747019975246061597,-0.348,,,,1.1682492721
1747019975253762375,-0.272,,,,1.1690193499
1747019975261463153,-0.193,,,,1.1697894277
1747019975269163931,-0.139,,,,1.1705595055
1747019975276864709,-0.191,,,,1.1713295833
1747019975284565487,-0.213,,,,1.1720996611
1747019975292266265,-0.196,,,,1.1728697389
1747019975299967043,-0.215,,,,1.1736398167
1747019975307667821,-0.23,,,,1.1744098945
1747019975315368599,-0.225,,,,1.1751799723
1747019975323069377,-0.238,,,,1.1759500501
1747019975330770155,-0.24,,,,1.1767201279
1747019975338470933,-0.215,,,,1.1774902057
1747019975346171711,-0.208,,,,1.1782602835
1747019975353872489,-0.198,,,,1.1790303613
1747019975361573267,-0.078,,,,1.1798004391
1747019975369274066,-0.007,72.0,838.0,,1.180570519
1747019975376975192,-0.147,,931.0,,1.1813406316
1747019975384676318,-0.181,,,,1.1821107442
1747019975392377444,-0.036,,,,1.1828808568
1747019975400078570,-0.007,,,,1.1836509694
1747019975407779696,-0.029,,,,1.184421082
1747019975415480822,0.007,,,,1.1851911946
1747019975423181948,0.022,,,,1.1859613072
1747019975430883074,0.107,,,,1.1867314198
1747019975438584200,0.233,,,,1.1875015324
1747019975446285326,0.25,,,,1.188271645
1747019975453986452,0.235,,,,1.1890417576
1747019975461687578,0.26,,,,1.1898118702
1747019975469388704,0.242,,,,1.1905819828
1747019975477089830,0.179,,,,1.1913520954
1747019975484790956,0.13,,,,1.192122208
1747019975492492082,0.085,,,,1.1928923206
1747019975500193208,0.039,,,,1.1936624332
1747019975507894334,0.007,,,,1.1944325458
1747019975515595460,-0.009,,,,1.1952026584
1747019975523296586,-0.031,,,,1.195972771
1747019975530997712,-0.061,,,,1.1967428836
1747019975538698838,-0.066,,,,1.1975129962
1747019975546399964,-0.056,,,,1.1982831088
1747019975554101090,-0.061,,,,1.1990532214
1747019975561802216,-0.063,,,,1.199823334
1747019975569503342,-0.063,,,,1.2005934466
1747019975577204468,-0.061,,,,1.2013635592
1747019975584905594,-0.051,,,,1.2021336718
1747019975592606720,-0.063,,,,1.2029037844
1747019975600307846,-0.095,,,,1.203673897
1747019975608008972,-0.095,,,,1.2044440096
1747019975615710098,-0.073,,,,1.2052141222
1747019975623411224,-0.08,,,,1.2059842348
1747019975631112350,-0.085,,,,1.2067543474
1747019975638813476,-0.053,,,,1.20752446
1747019975646514602,-0.049,,,,1.2082945726
1747019975654215728,-0.071,,,,1.2090646852
1747019975661916854,-0.078,,,,1.2098347978
1747019975669617980,-0.078,,,,1.2106049104
1747019975677319106,-0.068,,,,1.211375023
1747019975685020232,-0.083,,,,1.2121451356
1747019975692721358,-0.107,,,,1.2129152482
1747019975700422484,-0.078,,,,1.2136853608
1747019975708123610,-0.051,,,,1.2144554734
1747019975715824736,-0.058,,,,1.215225586
1747019975723525862,-0.053,,,,1.2159956986
1747019975731226988,-0.039,,,,1.2167658112
1747019975738928114,-0.039,,,,1.2175359238
1747019975746629240,-0.046,,,,1.2183060364
1747019975754330366,-0.049,,,,1.219076149
1747019975762031492,-0.036,,,,1.2198462616
1747019975769732618,-0.029,,,,1.2206163742
1747019975777433744,-0.036,,,,1.2213864868
1747019975785134870,-0.041,,,,1.2221565994
1747019975792835996,-0.041,,,,1.222926712
1747019975800537122,-0.039,,,,1.2236968246
1747019975808238248,-0.044,,,,1.2244669372
1747019975815939374,-0.049,,,,1.2252370498
1747019975823640500,-0.051,,,,1.2260071624
1747019975831341626,-0.061,,,,1.226777275
1747019975839042752,-0.078,,,,1.2275473876
1747019975846743878,-0.088,,,,1.2283175002
1747019975854445004,-0.105,,,,1.2290876128
1747019975862146130,-0.12,,,,1.2298577254
1747019975869847256,-0.125,,,,1.230627838
1747019975877548382,-0.137,,,,1.2313979506
1747019975885249508,-0.157,,,,1.2321680632
1747019975892950634,-0.166,,,,1.2329381758
1747019975900651760,-0.154,,,,1.2337082884
1747019975908352886,-0.144,,,,1.234478401
1747019975916054012,-0.134,,,,1.2352485136
1747019975923755138,-0.115,,,,1.2360186262
1747019975931456320,-0.11,71.0,928.0,,1.2367887444
1747019975939157446,-0.127,,,,1.237558857
1747019975946858572,-0.147,,,,1.2383289696
1747019975954559698,-0.147,,,,1.2390990822
1747019975962260824,-0.137,,,,1.2398691948
1747019975969961950,-0.144,,,,1.2406393074
1747019975977663076,-0.142,,,,1.24140942
1747019975985364202,-0.125,,,,1.2421795326
1747019975993065328,-0.122,,,,1.2429496452
1747019976000766454,-0.13,,,,1.2437197578
1747019976008467580,-0.149,,,,1.2444898704
1747019976016168706,-0.169,,,,1.245259983
1747019976023869832,-0.034,,,,1.2460300956
1747019976031570958,0.449,,,,1.2468002082
1747019976039272084,1.121,,,,1.2475703208
1747019976046973210,1.253,,,,1.2483404334
1747019976054674336,0.399,,,,1.249110546
1747019976062375462,-0.623,,,,1.2498806586
1747019976070076588,-0.8260000000000001,,,,1.2506507712
1747019976077777714,-0.512,,,,1.2514208838
1747019976085478840,-0.36,,,,1.2521909964
1747019976093179966,-0.274,,,,1.252961109
1747019976100881092,-0.13,,,,1.2537312216
1747019976108582218,-0.107,,,,1.2545013342
1747019976116283344,-0.142,,,,1.2552714468
1747019976123984470,-0.112,,,,1.2560415594
1747019976131685596,-0.088,,,,1.256811672
1747019976139386722,-0.098,,,,1.2575817846
1747019976147087848,-0.098,,,,1.2583518972
1747019976154788974,-0.09,,,,1.2591220098
1747019976162490100,-0.09,,,,1.2598921224
1747019976170191226,-0.088,,,,1.260662235
1747019976177892352,-0.078,,,,1.2614323476
1747019976185593478,-0.056,,,,1.2622024602
1747019976193294604,-0.039,,,,1.2629725728
1747019976200995730,-0.024,,,,1.2637426854
1747019976208696856,0.0,,,,1.264512798
1747019976216397982,0.029,,,,1.2652829106
1747019976224099108,0.063,,,,1.2660530232
1747019976231800234,0.098,,,,1.2668231358
1747019976239501360,0.125,,,,1.2675932484
1747019976247202486,0.152,,,,1.268363361
1747019976254903612,0.176,,,,1.2691334736
1747019976262604738,0.196,,,,1.2699035862
1747019976270305864,0.208,,,,1.2706736988
1747019976278006990,0.211,,,,1.2714438114
1747019976285708116,0.208,,,,1.272213924
1747019976293409242,0.186,,,,1.2729840366
1747019976301110368,0.137,,,,1.2737541492
1747019976308811494,0.058,,,,1.2745242618
1747019976316512620,-0.034,,,,1.2752943744
1747019976324213746,-0.125,,,,1.276064487
1747019976331914872,-0.211,,,,1.2768345996
1747019976339615998,-0.284,,,,1.2776047122
1747019976347317124,-0.338,,,,1.2783748248
1747019976355018250,-0.37,,,,1.2791449374
1747019976362719376,-0.38,,,,1.27991505
1747019976370420502,-0.382,,,,1.2806851626
1747019976378121628,-0.38,,,,1.2814552752
1747019976385822754,-0.37,,,,1.2822253878
1747019976393523880,-0.36,,,,1.2829955004
1747019976401225006,-0.35,,,,1.283765613
1747019976408926132,-0.333,,,,1.2845357256
1747019976416627258,-0.311,,,,1.2853058382
1747019976424328384,-0.291,,,,1.2860759508
1747019976432029510,-0.277,,,,1.2868460634
1747019976439730636,-0.264,,,,1.287616176
1747019976447431762,-0.25,,,,1.2883862886
1747019976455132888,-0.228,,,,1.2891564012
1747019976462834014,-0.203,,,,1.2899265138
1747019976470535140,-0.193,,,,1.2906966264
1747019976478236266,-0.188,,,,1.291466739
1747019976485937392,-0.179,,,,1.2922368516
1747019976493638570,-0.174,,,,1.2930069694
1747019976501339696,-0.169,,,,1.293777082
1747019976509040822,-0.161,,,,1.2945471946
1747019976516741948,-0.157,,,,1.2953173072
1747019976524443074,-0.157,,,,1.2960874198
1747019976532144200,-0.161,,,,1.2968575324
1747019976539845326,-0.157,,,,1.297627645
1747019976547546452,-0.147,,,,1.2983977576
1747019976555247578,-0.149,,,,1.2991678702
1747019976562948704,-0.147,,,,1.2999379828
1747019976570649830,-0.132,,,,1.3007080954
1747019976578350956,-0.127,,,,1.301478208
1747019976586052082,-0.13,,,,1.3022483206
1747019976593753208,-0.122,,,,1.3030184332
1747019976601454334,-0.115,,,,1.3037885458
1747019976609155460,-0.115,,,,1.3045586584
1747019976616856586,-0.112,,,,1.305328771
1747019976624557712,-0.103,,,,1.3060988836
1747019976632258838,-0.1,,,,1.3068689962
1747019976639959964,-0.095,,,,1.3076391088
1747019976647661090,-0.093,,,,1.3084092214
1747019976655362216,-0.088,,,,1.309179334
1747019976663063342,-0.09,,,,1.3099494466
1747019976670764468,-0.1,,,,1.3107195592
1747019976678465594,-0.103,,,,1.3114896718
1747019976686166720,-0.083,,,,1.3122597844
1747019976693867846,-0.066,,,,1.313029897
1747019976701568972,-0.044,,,,1.3138000096
1747019976709270098,-0.022,,,,1.3145701222
1747019976716971224,-0.029,,,,1.3153402348
1747019976724672350,-0.061,,,,1.3161103474
1747019976732373476,-0.066,,,,1.31688046
1747019976740074602,-0.053,,,,1.3176505726
1747019976747775728,-0.053,,,,1.3184206852
1747019976755476854,-0.061,,,,1.3191907978
1747019976763177980,-0.063,,,,1.3199609104
1747019976770879106,-0.058,,,,1.320731023
1747019976778580232,-0.051,,,,1.3215011356
1747019976786281358,-0.053,,,,1.3222712482
1747019976793982484,-0.085,,,,1.3230413608
1747019976801683610,-0.11,,,,1.3238114734
1747019976809384736,0.073,,,,1.324581586
1747019976817085862,0.672,,,,1.3253516986
1747019976824786988,1.408,,,,1.3261218112
1747019976832488114,1.396,,,,1.3268919238
1747019976840189240,0.309,,,,1.3276620364
1747019976847890366,-0.75,,,,1.328432149
1747019976855591492,-0.782,,,,1.3292022616
1747019976863292618,-0.368,,,,1.3299723742
1747019976870993744,-0.25,,,,1.3307424868
1747019976878694870,-0.176,,,,1.3315125994
1747019976886395996,-0.017,,,,1.332282712
1747019976894097122,-0.007,,,,1.3330528246
1747019976901798248,-0.029,,,,1.3338229372
1747019976909499374,0.019,,,,1.3345930498
1747019976917200500,0.044,,,,1.3353631624
1747019976924901626,0.039,,,,1.336133275
1747019976932602752,0.058,,,,1.3369033876
1747019976940303878,0.078,,,,1.3376735002
1747019976948005004,0.078,,,,1.3384436128
1747019976955706130,0.093,,,,1.3392137254
1747019976963407256,0.12,,,,1.339983838
1747019976971108382,0.134,,,,1.3407539506
1747019976978809508,0.144,,,,1.3415240632
1747019976986510634,0.171,,,,1.3422941758
1747019976994211760,0.201,,,,1.3430642884
1747019977001912886,0.225,,,,1.343834401
1747019977009614012,0.255,,,,1.3446045136
1747019977017315138,0.287,,,,1.3453746262
1747019977025016264,0.318,,,,1.3461447388
1747019977032717390,0.35,,,,1.3469148514
1747019977040418516,0.38,,,,1.347684964
1747019977048119642,0.397,,,,1.3484550766
1747019977055820820,0.402,71.0,907.0,,1.3492251944
1747019977063521946,0.399,,,,1.349995307
1747019977071223072,0.382,,,,1.3507654196
1747019977078924198,0.345,,,,1.3515355322
1747019977086625324,0.284,,,,1.3523056448
1747019977094326450,0.193,,,,1.3530757574
1747019977102027576,0.093,,,,1.35384587
1747019977109728702,-0.014,,,,1.3546159826
1747019977117429828,-0.107,,,,1.3553860952
1747019977125130954,-0.174,,,,1.3561562078
1747019977132832080,-0.22,,,,1.3569263204
1747019977140533206,-0.242,,,,1.357696433
1747019977148234332,-0.252,,,,1.3584665456
1747019977155935458,-0.262,,,,1.3592366582
1747019977163636584,-0.262,,,,1.3600067708
1747019977171337710,-0.247,,,,1.3607768834
1747019977179038836,-0.233,,,,1.361546996
1747019977186739962,-0.223,,,,1.3623171086
1747019977194441088,-0.215,,,,1.3630872212
1747019977202142214,-0.201,,,,1.3638573338
1747019977209843340,-0.191,,,,1.3646274464
1747019977217544466,-0.186,,,,1.365397559
1747019977225245592,-0.169,,,,1.3661676716
1747019977232946718,-0.152,,,,1.3669377842
1747019977240647844,-0.149,,,,1.3677078968
1747019977248348970,-0.147,,,,1.3684780094
1747019977256050096,-0.137,,,,1.369248122
1747019977263751222,-0.132,,,,1.3700182346
1747019977271452348,-0.132,,,,1.3707883472
1747019977279153474,-0.127,,,,1.3715584598
1747019977286854600,-0.125,,,,1.3723285724
1747019977294555726,-0.132,,,,1.373098685
1747019977302256852,-0.134,,,,1.3738687976
1747019977309957978,-0.132,,,,1.3746389102
1747019977317659104,-0.134,,,,1.3754090228
1747019977325360230,-0.137,,,,1.3761791354
1747019977333061356,-0.139,,,,1.376949248
1747019977340762482,-0.139,,,,1.3777193606
1747019977348463608,-0.137,,,,1.3784894732
1747019977356164734,-0.134,,,,1.3792595858
1747019977363865860,-0.132,,,,1.3800296984
1747019977371566986,-0.132,,,,1.380799811
1747019977379268112,-0.127,,,,1.3815699236
1747019977386969238,-0.122,,,,1.3823400362
1747019977394670364,-0.132,,,,1.3831101488
1747019977402371490,-0.13,,,,1.3838802614
1747019977410072616,-0.115,,,,1.384650374
1747019977417773742,-0.11,,,,1.3854204866
1747019977425474868,-0.105,,,,1.3861905992
1747019977433175994,-0.1,,,,1.3869607118
1747019977440877120,-0.093,,,,1.3877308244
1747019977448578246,-0.085,,,,1.388500937
1747019977456279372,-0.085,,,,1.3892710496
1747019977463980498,-0.085,,,,1.3900411622
1747019977471681624,-0.078,,,,1.3908112748
1747019977479382750,-0.071,,,,1.3915813874
1747019977487083876,-0.063,,,,1.3923515
1747019977494785002,-0.063,,,,1.3931216126
1747019977502486128,-0.061,,,,1.3938917252
1747019977510187254,-0.066,,,,1.3946618378
1747019977517888380,-0.068,,,,1.3954319504
1747019977525589506,-0.058,,,,1.396202063
1747019977533290632,-0.046,,,,1.3969721756
1747019977540991758,-0.036,,,,1.3977422882
1747019977548692884,-0.012,,,,1.3985124008
1747019977556394010,0.0,,,,1.3992825134
1747019977564095136,-0.012,,,,1.400052626
1747019977571796262,-0.026,,,,1.4008227386
1747019977579497388,-0.029,,,,1.4015928512
1747019977587198514,-0.026,,,,1.4023629638
1747019977594899640,-0.026,,,,1.4031330764
1747019977602600766,-0.022,,,,1.403903189
1747019977610301892,-0.019,,,,1.4046733016
1747019977618003070,-0.019,,,,1.4054434194
1747019977625704196,-0.017,,,,1.406213532
1747019977633405322,-0.031,,,,1.4069836446
1747019977641106448,-0.076,,,,1.4077537572
1747019977648807574,0.002,,,,1.4085238698
1747019977656508700,0.473,,,,1.4092939824
1747019977664209826,1.266,,,,1.410064095
1747019977671910952,1.572,,,,1.4108342076
1747019977679612078,0.721,,,,1.4116043202
1747019977687313204,-0.517,,,,1.4123744328
1747019977695014330,-0.836,,,,1.4131445454
1747019977702715456,-0.399,,,,1.413914658
1747019977710416582,-0.193,,,,1.4146847706
1747019977718117708,-0.176,,,,1.4154548832
1747019977725818834,-0.019,,,,1.4162249958
1747019977733519960,0.039,,,,1.4169951084
1747019977741221086,-0.007,,,,1.417765221
1747019977748922212,0.022,,,,1.4185353336
1747019977756623338,0.066,,,,1.4193054462
1747019977764324464,0.066,,,,1.4200755588
1747019977772025590,0.068,,,,1.4208456714
1747019977779726716,0.085,,,,1.421615784
1747019977787427842,0.098,,,,1.4223858966
1747019977795128968,0.107,,,,1.4231560092
1747019977802830094,0.125,,,,1.4239261218
1747019977810531220,0.142,,,,1.4246962344
1747019977818232346,0.154,,,,1.425466347
1747019977825933472,0.174,,,,1.4262364596
1747019977833634598,0.198,,,,1.4270065722
1747019977841335724,0.225,,,,1.4277766848
1747019977849036850,0.25,,,,1.4285467974
1747019977856737976,0.284,,,,1.42931691
1747019977864439102,0.326,,,,1.4300870226
1747019977872140228,0.358,,,,1.4308571352
1747019977879841354,0.38,,,,1.4316272478
1747019977887542480,0.402,,,,1.4323973604
1747019977895243606,0.414,,,,1.433167473
1747019977902944732,0.419,,,,1.4339375856
1747019977910645858,0.412,,,,1.4347076982
1747019977918346984,0.387,,,,1.4354778108
1747019977926048110,0.343,,,,1.4362479234
1747019977933749236,0.262,,,,1.437018036
1747019977941450362,0.159,,,,1.4377881486
1747019977949151488,0.056,,,,1.4385582612
1747019977956852614,-0.044,,,,1.4393283738
1747019977964553740,-0.127,,,,1.4400984864
1747019977972254866,-0.186,,,,1.440868599
1747019977979955992,-0.22,,,,1.4416387116
1747019977987657118,-0.24,,,,1.4424088242
1747019977995358244,-0.252,,,,1.4431789368
1747019978003059370,-0.247,,,,1.4439490494
1747019978010760496,-0.238,,,,1.444719162
1747019978018461622,-0.228,,,,1.4454892746
1747019978026162748,-0.211,,,,1.4462593872
1747019978033863874,-0.196,,,,1.4470294998
1747019978041565000,-0.181,,,,1.4477996124
1747019978049266126,-0.176,,,,1.448569725
1747019978056967252,-0.174,,,,1.4493398376
1747019978064668378,-0.161,,,,1.4501099502
1747019978072369504,-0.149,,,,1.4508800628
1747019978080070630,-0.139,,,,1.4516501754
1747019978087771756,-0.132,,,,1.452420288
1747019978095472882,-0.132,,,,1.4531904006
1747019978103174008,-0.127,,,,1.4539605132
1747019978110875134,-0.122,,,,1.4547306258
1747019978118576260,-0.125,,,,1.4555007384
1747019978126277386,-0.125,,,,1.456270851
1747019978133978512,-0.125,,,,1.4570409636
1747019978141679638,-0.127,,,,1.4578110762
1747019978149380764,-0.132,,,,1.4585811888
1747019978157081890,-0.134,,,,1.4593513014
1747019978164783016,-0.132,,,,1.460121414
1747019978172484142,-0.134,,,,1.4608915266
1747019978180185320,-0.139,70.0,834.0,,1.4616616444
1747019978187886028,-0.134,,,,1.4624317152
1747019978195586736,-0.132,,,,1.463201786
1747019978203287444,-0.13,,,,1.4639718568
1747019978210988152,-0.125,,,,1.4647419276
1747019978218688860,-0.117,,,,1.4655119984
1747019978226389568,-0.115,,,,1.4662820692
1747019978234090276,-0.115,,,,1.46705214
1747019978241790984,-0.11,,,,1.4678222108
1747019978249491692,-0.107,,,,1.4685922816
1747019978257192400,-0.105,,,,1.4693623524
1747019978264893108,-0.098,,,,1.4701324232
1747019978272593816,-0.098,,,,1.470902494
1747019978280294524,-0.093,,,,1.4716725648
1747019978287995232,-0.088,,,,1.4724426356
1747019978295695940,-0.088,,,,1.4732127064
1747019978303396648,-0.088,,,,1.4739827772
1747019978311097356,-0.08,,,,1.474752848
1747019978318798064,-0.078,,,,1.4755229188
1747019978326498772,-0.08,,,,1.4762929896
1747019978334199480,-0.08,,,,1.4770630604
1747019978341900188,-0.088,,,,1.4778331312
1747019978349600896,-0.09,,,,1.478603202
1747019978357301604,-0.078,,,,1.4793732728
1747019978365002312,-0.063,,,,1.4801433436
1747019978372703020,-0.049,,,,1.4809134144
1747019978380403728,-0.029,,,,1.4816834852
1747019978388104436,-0.029,,,,1.482453556
1747019978395805144,-0.049,,,,1.4832236268
1747019978403505852,-0.053,,,,1.4839936976
1747019978411206560,-0.046,,,,1.4847637684
1747019978418907268,-0.049,,,,1.4855338392
1747019978426607976,-0.053,,,,1.48630391
1747019978434308684,-0.049,,,,1.4870739808
1747019978442009392,-0.041,,,,1.4878440516
1747019978449710100,-0.041,,,,1.4886141224
1747019978457410808,-0.049,,,,1.4893841932
1747019978465111516,-0.076,,,,1.490154264
1747019978472812224,-0.103,,,,1.4909243348
1747019978480512932,0.076,,,,1.4916944056
1747019978488213640,0.6990000000000001,,,,1.4924644764
1747019978495914348,1.454,,,,1.4932345472
1747019978503615056,1.386,,,,1.494004618
1747019978511315764,0.213,,,,1.4947746888
1747019978519016472,-0.812,,,,1.4955447596
1747019978526717180,-0.738,,,,1.4963148304
1747019978534417888,-0.306,,,,1.4970849012
1747019978542118596,-0.22,,,,1.497854972
1747019978549819304,-0.147,,,,1.4986250428
1747019978557520012,0.012,,,,1.4993951136
1747019978565220720,0.014,,,,1.5001651844
1747019978572921428,-0.019,,,,1.5009352552
1747019978580622136,0.024,,,,1.501705326
1747019978588322844,0.049,,,,1.5024753968
1747019978596023552,0.041,,,,1.5032454676
1747019978603724260,0.061,,,,1.5040155384
1747019978611424968,0.08,,,,1.5047856092
1747019978619125676,0.085,,,,1.50555568
1747019978626826384,0.095,,,,1.5063257508
1747019978634527092,0.117,,,,1.5070958216
1747019978642227800,0.134,,,,1.5078658924
1747019978649928508,0.149,,,,1.5086359632
1747019978657629216,0.171,,,,1.509406034
1747019978665329924,0.198,,,,1.5101761048
1747019978673030632,0.218,,,,1.5109461756
1747019978680731340,0.25,,,,1.5117162464
1747019978688432048,0.289,,,,1.5124863172
1747019978696132756,0.318,,,,1.513256388
1747019978703833464,0.348,,,,1.5140264588
1747019978711534172,0.375,,,,1.5147965296
1747019978719234880,0.392,,,,1.5155666004
1747019978726935588,0.404,,,,1.5163366712
1747019978734636296,0.399,,,,1.517106742
1747019978742337052,0.385,,,,1.5178768176
1747019978750038178,0.36,,,,1.5186469302
1747019978757739304,0.309,,,,1.5194170428
1747019978765440430,0.22,,,,1.5201871554
1747019978773141556,0.115,,,,1.520957268
1747019978780842682,0.024,,,,1.5217273806
1747019978788543808,-0.056,,,,1.5224974932
1747019978796244934,-0.134,,,,1.5232676058
1747019978803946060,-0.186,,,,1.5240377184
1747019978811647186,-0.211,,,,1.524807831
1747019978819348312,-0.225,,,,1.5255779436
1747019978827049438,-0.225,,,,1.5263480562
1747019978834750564,-0.215,,,,1.5271181688
1747019978842451690,-0.203,,,,1.5278882814
1747019978850152816,-0.196,,,,1.528658394
1747019978857853942,-0.184,,,,1.5294285066
1747019978865555068,-0.166,,,,1.5301986192
1747019978873256194,-0.154,,,,1.5309687318
1747019978880957320,-0.144,,,,1.5317388444
1747019978888658446,-0.134,,,,1.532508957
1747019978896359572,-0.125,,,,1.5332790696
1747019978904060698,-0.112,,,,1.5340491822
1747019978911761824,-0.107,,,,1.5348192948
1747019978919462950,-0.107,,,,1.5355894074
1747019978927164076,-0.105,,,,1.53635952
1747019978934865202,-0.1,,,,1.5371296326
1747019978942566328,-0.095,,,,1.5378997452
1747019978950267454,-0.095,,,,1.5386698578
1747019978957968580,-0.103,,,,1.5394399704
1747019978965669706,-0.11,,,,1.540210083
1747019978973370832,-0.112,,,,1.5409801956
1747019978981071958,-0.112,,,,1.5417503082
1747019978988773084,-0.107,,,,1.5425204208
1747019978996474210,-0.103,,,,1.5432905334
1747019979004175336,-0.103,,,,1.544060646
1747019979011876462,-0.105,,,,1.5448307586
1747019979019577588,-0.11,,,,1.5456008712
1747019979027278714,-0.105,,,,1.5463709838
1747019979034979840,-0.1,,,,1.5471410964
1747019979042680966,-0.098,,,,1.547911209
1747019979050382092,-0.1,,,,1.5486813216
1747019979058083218,-0.1,,,,1.5494514342
1747019979065784344,-0.09,,,,1.5502215468
1747019979073485470,-0.09,,,,1.5509916594
1747019979081186596,-0.09,,,,1.551761772
1747019979088887722,-0.08,,,,1.5525318846
1747019979096588848,-0.08,,,,1.5533019972
1747019979104289974,-0.085,,,,1.5540721098
1747019979111991100,-0.08,,,,1.5548422224
1747019979119692226,-0.071,,,,1.555612335
1747019979127393352,-0.073,,,,1.5563824476
1747019979135094478,-0.078,,,,1.5571525602
1747019979142795604,-0.073,,,,1.5579226728
1747019979150496730,-0.068,,,,1.5586927854
1747019979158197856,-0.068,,,,1.559462898
1747019979165898982,-0.066,,,,1.5602330106
1747019979173600108,-0.063,,,,1.5610031232
1747019979181301234,-0.061,,,,1.5617732358
1747019979189002360,-0.061,,,,1.5625433484
1747019979196703486,-0.071,,,,1.563313461
1747019979204404612,-0.071,,,,1.5640835736
1747019979212105738,-0.058,,,,1.5648536862
1747019979219806864,-0.051,,,,1.5656237988
1747019979227507990,-0.029,,,,1.5663939114
1747019979235209116,-0.004,,,,1.567164024
1747019979242910242,-0.014,,,,1.5679341366
1747019979250611368,-0.036,,,,1.5687042492
1747019979258312494,-0.039,,,,1.5694743618
1747019979266013620,-0.031,,,,1.5702444744
1747019979273714746,-0.039,,,,1.571014587
1747019979281415872,-0.039,,,,1.5717846996
1747019979289116998,-0.031,,,,1.5725548122
1747019979296818124,-0.031,,,,1.5733249248
1747019979304519306,-0.031,70.0,784.0,,1.574095043
1747019979312220432,-0.041,,,,1.5748651556
1747019979319921558,-0.083,,,,1.5756352682
1747019979327622684,-0.049,,,,1.5764053808
1747019979335323810,0.323,,,,1.5771754934
1747019979343024936,1.079,,,,1.577945606
1747019979350726062,1.518,,,,1.5787157186
1747019979358427188,0.851,,,,1.5794858312
1747019979366128314,-0.395,,,,1.5802559438
1747019979373829440,-0.871,,,,1.5810260564
1747019979381530566,-0.493,,,,1.581796169
1747019979389231692,-0.23,,,,1.5825662816
1747019979396932818,-0.201,,,,1.5833363942
1747019979404633944,-0.049,,,,1.5841065068
1747019979412335070,0.041,,,,1.5848766194
1747019979420036196,-0.002,,,,1.585646732
1747019979427737322,0.012,,,,1.5864168446
1747019979435438448,0.056,,,,1.5871869572
1747019979443139574,0.053,,,,1.5879570698
1747019979450840700,0.061,,,,1.5887271824
1747019979458541826,0.088,,,,1.589497295
1747019979466242952,0.098,,,,1.5902674076
1747019979473944078,0.098,,,,1.5910375202
1747019979481645204,0.115,,,,1.5918076328
1747019979489346330,0.134,,,,1.5925777454
1747019979497047456,0.144,,,,1.593347858
1747019979504748582,0.164,,,,1.5941179706
1747019979512449708,0.191,,,,1.5948880832
1747019979520150834,0.215,,,,1.5956581958
1747019979527851960,0.24,,,,1.5964283084
1747019979535553086,0.267,,,,1.597198421
1747019979543254212,0.299,,,,1.5979685336
1747019979550955338,0.333,,,,1.5987386462
1747019979558656464,0.353,,,,1.5995087588
1747019979566357590,0.365,,,,1.6002788714
1747019979574058716,0.377,,,,1.601048984
1747019979581759842,0.382,,,,1.6018190966
1747019979589460968,0.375,,,,1.6025892092
1747019979597162094,0.36,,,,1.6033593218
1747019979604863220,0.328,,,,1.6041294344
1747019979612564346,0.267,,,,1.604899547
1747019979620265472,0.181,,,,1.6056696596
1747019979627966598,0.088,,,,1.6064397722
1747019979635667724,-0.002,,,,1.6072098848
1747019979643368850,-0.076,,,,1.6079799974
1747019979651069976,-0.137,,,,1.60875011
1747019979658771102,-0.181,,,,1.6095202226
1747019979666472228,-0.203,,,,1.6102903352
1747019979674173354,-0.208,,,,1.6110604478
1747019979681874480,-0.201,,,,1.6118305604
1747019979689575606,-0.188,,,,1.612600673
1747019979697276732,-0.179,,,,1.6133707856
1747019979704977858,-0.161,,,,1.6141408982
1747019979712678984,-0.149,,,,1.6149110108
1747019979720380110,-0.137,,,,1.6156811234
1747019979728081236,-0.122,,,,1.616451236
1747019979735782362,-0.107,,,,1.6172213486
1747019979743483488,-0.095,,,,1.6179914612
1747019979751184614,-0.09,,,,1.6187615738
1747019979758885740,-0.088,,,,1.6195316864
1747019979766586866,-0.083,,,,1.620301799
1747019979774287992,-0.076,,,,1.6210719116
1747019979781989118,-0.078,,,,1.6218420242
1747019979789690244,-0.08,,,,1.6226121368
1747019979797391370,-0.08,,,,1.6233822494
1747019979805092496,-0.08,,,,1.624152362
1747019979812793622,-0.083,,,,1.6249224746
1747019979820494748,-0.083,,,,1.6256925872
1747019979828195874,-0.083,,,,1.6264626998
1747019979835897000,-0.088,,,,1.6272328124
1747019979843598126,-0.09,,,,1.628002925
1747019979851299252,-0.09,,,,1.6287730376
1747019979859000378,-0.093,,,,1.6295431502
1747019979866701556,-0.088,,,,1.630313268
1747019979874402682,-0.083,,,,1.6310833806
1747019979882103808,-0.085,,,,1.6318534932
1747019979889804934,-0.088,,,,1.6326236058
1747019979897506060,-0.085,,,,1.6333937184
1747019979905207186,-0.078,,,,1.634163831
1747019979912908312,-0.076,,,,1.6349339436
1747019979920609438,-0.073,,,,1.6357040562
1747019979928310564,-0.068,,,,1.6364741688
1747019979936011690,-0.068,,,,1.6372442814
1747019979943712816,-0.066,,,,1.638014394
1747019979951413942,-0.061,,,,1.6387845066
1747019979959115068,-0.061,,,,1.6395546192
1747019979966816194,-0.058,,,,1.6403247318
1747019979974517320,-0.058,,,,1.6410948444
1747019979982218446,-0.056,,,,1.641864957
1747019979989919572,-0.051,,,,1.6426350696
1747019979997620698,-0.049,,,,1.6434051822
1747019980005321824,-0.044,,,,1.6441752948
1747019980013022950,-0.044,,,,1.6449454074
1747019980020724076,-0.044,,,,1.64571552
1747019980028425202,-0.039,,,,1.6464856326
1747019980036126328,-0.041,,,,1.6472557452
1747019980043827454,-0.044,,,,1.6480258578
1747019980051528580,-0.041,,,,1.6487959704
1747019980059229706,-0.036,,,,1.649566083
1747019980066930832,-0.031,,,,1.6503361956
1747019980074631958,-0.031,,,,1.6511063082
1747019980082333084,-0.031,,,,1.6518764208
1747019980090034210,-0.041,,,,1.6526465334
1747019980097735336,-0.056,,,,1.653416646
1747019980105436462,-0.046,,,,1.6541867586
1747019980113137588,-0.029,,,,1.6549568712
1747019980120838714,-0.019,,,,1.6557269838
1747019980128539840,0.0,,,,1.6564970964
1747019980136240966,0.007,,,,1.657267209
1747019980143942092,-0.004,,,,1.6580373216
1747019980151643218,-0.019,,,,1.6588074342
1747019980159344344,-0.019,,,,1.6595775468
1747019980167045470,-0.017,,,,1.6603476594
1747019980174746596,-0.022,,,,1.661117772
1747019980182447722,-0.019,,,,1.6618878846
1747019980190148848,-0.014,,,,1.6626579972
1747019980197849974,-0.014,,,,1.6634281098
1747019980205551100,-0.014,,,,1.6641982224
1747019980213252226,-0.036,,,,1.664968335
1747019980220953352,-0.076,,,,1.6657384476
1747019980228654478,0.066,,,,1.6665085602
1747019980236355604,0.645,,,,1.6672786728
1747019980244056730,1.408,,,,1.6680487854
1747019980251757856,1.403,,,,1.668818898
1747019980259458982,0.287,,,,1.6695890106
1747019980267160108,-0.755,,,,1.6703591232
1747019980274861234,-0.728,,,,1.6711292358
1747019980282562360,-0.289,,,,1.6718993484
1747019980290263486,-0.184,,,,1.672669461
1747019980297964612,-0.122,,,,1.6734395736
1747019980305665738,0.024,,,,1.6742096862
1747019980313366864,0.029,,,,1.6749797988
1747019980321067990,0.002,,,,1.6757499114
1747019980328769116,0.044,,,,1.676520024
1747019980336470242,0.063,,,,1.6772901366
1747019980344171368,0.061,,,,1.6780602492
1747019980351872494,0.071,,,,1.6788303618
1747019980359573620,0.08,,,,1.6796004744
1747019980367274746,0.083,,,,1.680370587
1747019980374975872,0.093,,,,1.6811406996
1747019980382676998,0.11,,,,1.6819108122
1747019980390378124,0.125,,,,1.6826809248
1747019980398079250,0.142,,,,1.6834510374
1747019980405780376,0.166,,,,1.68422115
1747019980413481502,0.193,,,,1.6849912626
1747019980421182628,0.218,,,,1.6857613752
1747019980428883806,0.245,70.0,842.0,,1.686531493
1747019980436584932,0.274,,,,1.6873016056
1747019980444286058,0.304,,,,1.6880717182
1747019980451987184,0.331,,,,1.6888418308
1747019980459688310,0.355,,,,1.6896119434
1747019980467389436,0.375,,,,1.690382056
1747019980475090562,0.377,,,,1.6911521686
1747019980482791688,0.375,,,,1.6919222812
1747019980490492814,0.368,,,,1.6926923938
1747019980498193940,0.353,,,,1.6934625064
1747019980505895066,0.321,,,,1.694232619
1747019980513596192,0.264,,,,1.6950027316
1747019980521297318,0.186,,,,1.6957728442
1747019980528998444,0.098,,,,1.6965429568
1747019980536699570,0.012,,,,1.6973130694
1747019980544400696,-0.063,,,,1.698083182
1747019980552101822,-0.122,,,,1.6988532946
1747019980559802948,-0.161,,,,1.6996234072
1747019980567504074,-0.181,,,,1.7003935198
1747019980575205200,-0.188,,,,1.7011636324
1747019980582906326,-0.188,,,,1.701933745
1747019980590607452,-0.181,,,,1.7027038576
1747019980598308578,-0.169,,,,1.7034739702
1747019980606009704,-0.157,,,,1.7042440828
1747019980613710830,-0.147,,,,1.7050141954
1747019980621411956,-0.134,,,,1.705784308
1747019980629113082,-0.12,,,,1.7065544206
1747019980636814208,-0.11,,,,1.7073245332
1747019980644515334,-0.103,,,,1.7080946458
1747019980652216460,-0.095,,,,1.7088647584
1747019980659917586,-0.093,,,,1.709634871
1747019980667618712,-0.093,,,,1.7104049836
1747019980675319838,-0.09,,,,1.7111750962
1747019980683020964,-0.088,,,,1.7119452088
1747019980690722090,-0.088,,,,1.7127153214
1747019980698423216,-0.093,,,,1.713485434
1747019980706124342,-0.09,,,,1.7142555466
1747019980713825468,-0.088,,,,1.7150256592
1747019980721526594,-0.088,,,,1.7157957718
1747019980729227720,-0.09,,,,1.7165658844
1747019980736928846,-0.093,,,,1.717335997
1747019980744629972,-0.088,,,,1.7181061096
1747019980752331098,-0.085,,,,1.7188762222
1747019980760032224,-0.085,,,,1.7196463348
1747019980767733350,-0.088,,,,1.7204164474
1747019980775434476,-0.085,,,,1.72118656
1747019980783135602,-0.08,,,,1.7219566726
1747019980790836728,-0.08,,,,1.7227267852
1747019980798537854,-0.078,,,,1.7234968978
1747019980806238980,-0.073,,,,1.7242670104
1747019980813940106,-0.073,,,,1.725037123
1747019980821641232,-0.073,,,,1.7258072356
1747019980829342358,-0.071,,,,1.7265773482
1747019980837043484,-0.068,,,,1.7273474608
1747019980844744610,-0.066,,,,1.7281175734
1747019980852445736,-0.066,,,,1.728887686
1747019980860146862,-0.063,,,,1.7296577986
1747019980867847988,-0.058,,,,1.7304279112
1747019980875549114,-0.053,,,,1.7311980238
1747019980883250240,-0.056,,,,1.7319681364
1747019980890951366,-0.058,,,,1.732738249
1747019980898652492,-0.058,,,,1.7335083616
1747019980906353618,-0.056,,,,1.7342784742
1747019980914054744,-0.051,,,,1.7350485868
1747019980921755870,-0.049,,,,1.7358186994
1747019980929456996,-0.049,,,,1.736588812
1747019980937158122,-0.049,,,,1.7373589246
1747019980944859248,-0.044,,,,1.7381290372
1747019980952560374,-0.044,,,,1.7388991498
1747019980960261500,-0.044,,,,1.7396692624
1747019980967962626,-0.041,,,,1.740439375
1747019980975663752,-0.041,,,,1.7412094876
1747019980983364878,-0.039,,,,1.7419796002
1747019980991066056,-0.036,71.0,829.0,,1.742749718
1747019980998767113,-0.036,,851.0,,1.7435198237
1747019981006468170,-0.029,,,,1.7442899294
1747019981014169227,-0.029,,,,1.7450600351
1747019981021870284,-0.039,,,,1.7458301408
1747019981029571341,-0.044,,,,1.7466002465
1747019981037272398,-0.036,,,,1.7473703522
1747019981044973455,-0.024,,,,1.7481404579
1747019981052674512,-0.012,,,,1.7489105636
1747019981060375569,0.009,,,,1.7496806693
1747019981068076626,0.017,,,,1.750450775
1747019981075777683,-0.004,,,,1.7512208807
1747019981083478740,-0.022,,,,1.7519909864
1747019981091179797,-0.022,,,,1.7527610921
1747019981098880854,-0.019,,,,1.7535311978
1747019981106581911,-0.022,,,,1.7543013035
1747019981114282968,-0.022,,,,1.7550714092
1747019981121984025,-0.017,,,,1.7558415149
1747019981129685082,-0.012,,,,1.7566116206
1747019981137386139,-0.019,,,,1.7573817263
1747019981145087196,-0.051,,,,1.758151832
1747019981152788253,-0.073,,,,1.7589219377
1747019981160489310,0.134,,,,1.7596920434
1747019981168190367,0.765,,,,1.7604621491
1747019981175891424,1.403,,,,1.7612322548
1747019981183592481,1.143,,,,1.7620023605
1747019981191293538,-0.019,,,,1.7627724662
1747019981198994595,-0.8210000000000001,,,,1.7635425719
1747019981206695652,-0.623,,,,1.7643126776
1747019981214396709,-0.245,,,,1.7650827833
1747019981222097766,-0.169,,,,1.765852889
1747019981229798823,-0.066,,,,1.7666229947
1747019981237499880,0.053,,,,1.7673931004
1747019981245200937,0.034,,,,1.7681632061
1747019981252901994,0.024,,,,1.7689333118
1747019981260603051,0.068,,,,1.7697034175
1747019981268304108,0.078,,,,1.7704735232
1747019981276005165,0.076,,,,1.7712436289
1747019981283706222,0.093,,,,1.7720137346
1747019981291407279,0.1,,,,1.7727838403
1747019981299108336,0.103,,,,1.773553946
1747019981306809393,0.125,,,,1.7743240517
1747019981314510450,0.142,,,,1.7750941574
1747019981322211507,0.152,,,,1.7758642631
1747019981329912564,0.166,,,,1.7766343688
1747019981337613621,0.179,,,,1.7774044745
1747019981345314678,0.196,,,,1.7781745802
1747019981353015735,0.22,,,,1.7789446859
1747019981360716792,0.245,,,,1.7797147916
1747019981368417849,0.267,,,,1.7804848973
1747019981376118906,0.287,,,,1.781255003
1747019981383819963,0.306,,,,1.7820251087
1747019981391521020,0.326,,,,1.7827952144
1747019981399222077,0.338,,,,1.7835653201
1747019981406923134,0.341,,,,1.7843354258
1747019981414624191,0.333,,,,1.7851055315
1747019981422325248,0.321,,,,1.7858756372
1747019981430026305,0.306,,,,1.7866457429
1747019981437727362,0.277,,,,1.7874158486
1747019981445428419,0.23,,,,1.7881859543
1747019981453129476,0.164,,,,1.78895606
1747019981460830533,0.085,,,,1.7897261657
1747019981468531590,0.007,,,,1.7904962714
1747019981476232647,-0.061,,,,1.7912663771
1747019981483933704,-0.112,,,,1.7920364828
1747019981491634761,-0.152,,,,1.7928065885
1747019981499335818,-0.179,,,,1.7935766942
1747019981507036875,-0.186,,,,1.7943467999
1747019981514737932,-0.184,,,,1.7951169056
1747019981522438989,-0.174,,,,1.7958870113
1747019981530140046,-0.157,,,,1.796657117
1747019981537841103,-0.144,,,,1.7974272227
1747019981545542160,-0.134,,,,1.7981973284
1747019981553243223,-0.125,,,,1.7989674347
1747019981560944001,-0.115,,,,1.7997375125
1747019981568644779,-0.11,,,,1.8005075903
1747019981576345557,-0.112,,,,1.8012776681
1747019981584046335,-0.103,,,,1.8020477459
1747019981591747113,-0.098,,,,1.8028178237
1747019981599447891,-0.1,,,,1.8035879015
1747019981607148669,-0.098,,,,1.8043579793
1747019981614849447,-0.095,,,,1.8051280571
1747019981622550225,-0.1,,,,1.8058981349
1747019981630251003,-0.1,,,,1.8066682127
1747019981637951781,-0.103,,,,1.8074382905
1747019981645652559,-0.107,,,,1.8082083683
1747019981653353337,-0.11,,,,1.8089784461
1747019981661054115,-0.11,,,,1.8097485239
1747019981668754893,-0.115,,,,1.8105186017
1747019981676455671,-0.115,,,,1.8112886795
1747019981684156449,-0.107,,,,1.8120587573
1747019981691857227,-0.107,,,,1.8128288351
1747019981699558005,-0.112,,,,1.8135989129
1747019981707258783,-0.11,,,,1.8143689907
1747019981714959561,-0.105,,,,1.8151390685
1747019981722660339,-0.105,,,,1.8159091463
1747019981730361117,-0.103,,,,1.8166792241
1747019981738061895,-0.103,,,,1.8174493019
1747019981745762673,-0.098,,,,1.8182193797
1747019981753463451,-0.09,,,,1.8189894575
1747019981761164229,-0.088,,,,1.8197595353
1747019981768865007,-0.08,,,,1.8205296131
1747019981776565785,-0.076,,,,1.8212996909
1747019981784266563,-0.076,,,,1.8220697687
1747019981791967341,-0.076,,,,1.8228398465
1747019981799668119,-0.076,,,,1.8236099243
1747019981807368897,-0.071,,,,1.8243800021
1747019981815069675,-0.071,,,,1.8251500799
1747019981822770453,-0.068,,,,1.8259201577
1747019981830471231,-0.063,,,,1.8266902355
1747019981838172009,-0.063,,,,1.8274603133
1747019981845872787,-0.061,,,,1.8282303911
1747019981853573565,-0.058,,,,1.8290004689
1747019981861274343,-0.053,,,,1.8297705467
1747019981868975121,-0.049,,,,1.8305406245
1747019981876675899,-0.051,,,,1.8313107023
1747019981884376677,-0.053,,,,1.8320807801
1747019981892077455,-0.049,,,,1.8328508579
1747019981899778233,-0.049,,,,1.8336209357
1747019981907479011,-0.049,,,,1.8343910135
1747019981915179789,-0.046,,,,1.8351610913
1747019981922880567,-0.044,,,,1.8359311691
1747019981930581345,-0.051,,,,1.8367012469
1747019981938282123,-0.058,,,,1.8374713247
1747019981945982901,-0.046,,,,1.8382414025
1747019981953683679,-0.034,,,,1.8390114803
1747019981961384457,-0.026,,,,1.8397815581
1747019981969085235,-0.004,,,,1.8405516359
1747019981976786013,0.004,,,,1.8413217137
1747019981984486791,-0.014,,,,1.8420917915
1747019981992187569,-0.029,,,,1.8428618693
1747019981999888347,-0.026,,,,1.8436319471
1747019982007589125,-0.024,,,,1.8444020249
1747019982015289903,-0.031,,,,1.8451721027
1747019982022990681,-0.029,,,,1.8459421805
1747019982030691459,-0.017,,,,1.8467122583
1747019982038392237,-0.014,,,,1.8474823361
1747019982046093015,-0.022,,,,1.8482524139
1747019982053793793,-0.056,,,,1.8490224917
1747019982061494571,-0.078,,,,1.8497925695
1747019982069195349,0.134,,,,1.8505626473
1747019982076896127,0.76,,,,1.8513327251
1747019982084596905,1.376,,,,1.8521028029
1747019982092297683,1.116,,,,1.8528728807
1747019982099998461,-0.012,,,,1.8536429585
1747019982107699239,-0.79,,,,1.8544130363
1747019982115400038,-0.625,71.0,897.0,,1.8551831162
1747019982123101164,-0.279,,,,1.8559532288
1747019982130802290,-0.193,,,,1.8567233414
1747019982138503416,-0.073,,,,1.857493454
1747019982146204542,0.066,,,,1.8582635666
1747019982153905668,0.058,,,,1.8590336792
1747019982161606794,0.046,,,,1.8598037918
1747019982169307920,0.088,,,,1.8605739044
1747019982177009046,0.103,,,,1.861344017
1747019982184710172,0.1,,,,1.8621141296
1747019982192411298,0.117,,,,1.8628842422
1747019982200112424,0.134,,,,1.8636543548
1747019982207813550,0.144,,,,1.8644244674
1747019982215514676,0.154,,,,1.86519458
1747019982223215802,0.166,,,,1.8659646926
1747019982230916928,0.176,,,,1.8667348052
1747019982238618054,0.196,,,,1.8675049178
1747019982246319180,0.218,,,,1.8682750304
1747019982254020306,0.235,,,,1.869045143
1747019982261721432,0.252,,,,1.8698152556
1747019982269422558,0.279,,,,1.8705853682
1747019982277123684,0.301,,,,1.8713554808
1747019982284824810,0.316,,,,1.8721255934
1747019982292525936,0.336,,,,1.872895706
1747019982300227062,0.348,,,,1.8736658186
1747019982307928188,0.348,,,,1.8744359312
1747019982315629314,0.345,,,,1.8752060438
1747019982323330440,0.343,,,,1.8759761564
1747019982331031566,0.338,,,,1.876746269
1747019982338732692,0.318,,,,1.8775163816
1747019982346433818,0.291,,,,1.8782864942
1747019982354134944,0.245,,,,1.8790566068
1747019982361836070,0.174,,,,1.8798267194
1747019982369537196,0.098,,,,1.880596832
1747019982377238322,0.024,,,,1.8813669446
1747019982384939448,-0.039,,,,1.8821370572
1747019982392640574,-0.085,,,,1.8829071698
1747019982400341700,-0.12,,,,1.8836772824
1747019982408042826,-0.139,,,,1.884447395
1747019982415743952,-0.144,,,,1.8852175076
1747019982423445078,-0.134,,,,1.8859876202
1747019982431146204,-0.125,,,,1.8867577328
1747019982438847330,-0.117,,,,1.8875278454
1747019982446548456,-0.103,,,,1.888297958
1747019982454249582,-0.09,,,,1.8890680706
1747019982461950708,-0.083,,,,1.8898381832
1747019982469651834,-0.073,,,,1.8906082958
1747019982477352960,-0.068,,,,1.8913784084
1747019982485054086,-0.071,,,,1.892148521
1747019982492755212,-0.071,,,,1.8929186336
1747019982500456338,-0.068,,,,1.8936887462
1747019982508157464,-0.063,,,,1.8944588588
1747019982515858590,-0.058,,,,1.8952289714
1747019982523559716,-0.058,,,,1.895999084
1747019982531260842,-0.063,,,,1.8967691966
1747019982538961968,-0.071,,,,1.8975393092
1747019982546663094,-0.068,,,,1.8983094218
1747019982554364220,-0.066,,,,1.8990795344
1747019982562065346,-0.071,,,,1.899849647
1747019982569766472,-0.073,,,,1.9006197596
1747019982577467598,-0.073,,,,1.9013898722
1747019982585168724,-0.068,,,,1.9021599848
1747019982592869850,-0.066,,,,1.9029300974
1747019982600570976,-0.071,,,,1.90370021
1747019982608272102,-0.071,,,,1.9044703226
1747019982615973228,-0.068,,,,1.9052404352
1747019982623674354,-0.068,,,,1.9060105478
1747019982631375480,-0.066,,,,1.9067806604
1747019982639076606,-0.066,,,,1.907550773
1747019982646777732,-0.061,,,,1.9083208856
1747019982654478858,-0.061,,,,1.9090909982
1747019982662179984,-0.058,,,,1.9098611108
1747019982669881110,-0.051,,,,1.9106312234
1747019982677582292,-0.053,,,,1.9114013416
1747019982685283418,-0.056,,,,1.9121714542
1747019982692984544,-0.049,,,,1.9129415668
1747019982700685670,-0.046,,,,1.9137116794
1747019982708386796,-0.046,,,,1.914481792
1747019982716087922,-0.046,,,,1.9152519046
1747019982723789048,-0.044,,,,1.9160220172
1747019982731490174,-0.041,,,,1.9167921298
1747019982739191300,-0.039,,,,1.9175622424
1747019982746892426,-0.036,,,,1.918332355
1747019982754593552,-0.031,,,,1.9191024676
1747019982762294678,-0.031,,,,1.9198725802
1747019982769995804,-0.026,,,,1.9206426928
1747019982777696930,-0.022,,,,1.9214128054
1747019982785398056,-0.022,,,,1.922182918
1747019982793099182,-0.026,,,,1.9229530306
1747019982800800308,-0.029,,,,1.9237231432
1747019982808501434,-0.022,,,,1.9244932558
1747019982816202560,-0.022,,,,1.9252633684
1747019982823903686,-0.022,,,,1.926033481
1747019982831604812,-0.014,,,,1.9268035936
1747019982839305938,-0.024,,,,1.9275737062
1747019982847007064,-0.036,,,,1.9283438188
1747019982854708190,-0.022,,,,1.9291139314
1747019982862409316,0.004,,,,1.929884044
1747019982870110442,0.0,,,,1.9306541566
1747019982877811568,-0.012,,,,1.9314242692
1747019982885512694,0.002,,,,1.9321943818
1747019982893213820,0.002,,,,1.9329644944
1747019982900914946,-0.017,,,,1.933734607
1747019982908616072,-0.014,,,,1.9345047196
1747019982916317198,-0.007,,,,1.9352748322
1747019982924018324,-0.009,,,,1.9360449448
1747019982931719450,-0.007,,,,1.9368150574
1747019982939420576,-0.002,,,,1.93758517
1747019982947121702,0.002,,,,1.9383552826
1747019982954822828,-0.004,,,,1.9391253952
1747019982962523954,-0.036,,,,1.9398955078
1747019982970225080,-0.068,,,,1.9406656204
1747019982977926206,0.117,,,,1.941435733
1747019982985627332,0.758,,,,1.9422058456
1747019982993328458,1.435,,,,1.9429759582
1747019983001029584,1.194,,,,1.9437460708
1747019983008730710,0.014,,,,1.9445161834
1747019983016431836,-0.809,,,,1.945286296
1747019983024132962,-0.62,,,,1.9460564086
1747019983031834088,-0.242,,,,1.9468265212
1747019983039535214,-0.166,,,,1.9475966338
1747019983047236340,-0.063,,,,1.9483667464
1747019983054937466,0.056,,,,1.949136859
1747019983062638592,0.036,,,,1.9499069716
1747019983070339718,0.026,,,,1.9506770842
1747019983078040844,0.071,,,,1.9514471968
1747019983085741970,0.083,,,,1.9522173094
1747019983093443096,0.076,,,,1.952987422
1747019983101144222,0.095,,,,1.9537575346
1747019983108845348,0.12,,,,1.9545276472
1747019983116546474,0.122,,,,1.9552977598
1747019983124247600,0.12,,,,1.9560678724
1747019983131948726,0.127,,,,1.956837985
1747019983139649852,0.144,,,,1.9576080976
1747019983147350978,0.164,,,,1.9583782102
1747019983155052104,0.181,,,,1.9591483228
1747019983162753230,0.215,,,,1.9599184354
1747019983170454356,0.252,,,,1.960688548
1747019983178155482,0.252,,,,1.9614586606
1747019983185856608,0.242,,,,1.9622287732
1747019983193557734,0.264,,,,1.9629988858
1747019983201258860,0.294,,,,1.9637689984
1747019983208959986,0.306,,,,1.964539111
1747019983216661112,0.306,,,,1.9653092236
1747019983224362238,0.309,,,,1.9660793362
1747019983232063364,0.311,,,,1.9668494488
1747019983239764542,0.301,71.0,931.0,,1.9676195666
1747019983247465668,0.289,,,,1.9683896792
1747019983255166794,0.272,,,,1.9691597918
1747019983262867920,0.25,,,,1.9699299044
1747019983270569046,0.198,,,,1.970700017
1747019983278270172,0.095,,,,1.9714701296
1747019983285971298,-0.004,,,,1.9722402422
1747019983293672424,-0.061,,,,1.9730103548
1747019983301373550,-0.098,,,,1.9737804674
1747019983309074676,-0.13,,,,1.97455058
1747019983316775802,-0.149,,,,1.9753206926
1747019983324476928,-0.157,,,,1.9760908052
1747019983332178054,-0.152,,,,1.9768609178
1747019983339879180,-0.132,,,,1.9776310304
1747019983347580306,-0.117,,,,1.978401143
1747019983355281432,-0.11,,,,1.9791712556
1747019983362982558,-0.1,,,,1.9799413682
1747019983370683684,-0.095,,,,1.9807114808
1747019983378384810,-0.103,,,,1.9814815934
1747019983386085936,-0.095,,,,1.982251706
1747019983393787062,-0.073,,,,1.9830218186
1747019983401488188,-0.063,,,,1.9837919312
1747019983409189314,-0.061,,,,1.9845620438
1747019983416890440,-0.063,,,,1.9853321564
1747019983424591566,-0.076,,,,1.986102269
1747019983432292692,-0.09,,,,1.9868723816
1747019983439993818,-0.088,,,,1.9876424942
1747019983447694944,-0.08,,,,1.9884126068
1747019983455396070,-0.078,,,,1.9891827194
1747019983463097196,-0.071,,,,1.989952832
1747019983470798322,-0.063,,,,1.9907229446
1747019983478499448,-0.08,,,,1.9914930572
1747019983486200574,-0.103,,,,1.9922631698
1747019983493901700,-0.1,,,,1.9930332824
1747019983501602826,-0.09,,,,1.993803395
1747019983509303952,-0.098,,,,1.9945735076
1747019983517005078,-0.103,,,,1.9953436202
1747019983524706204,-0.09,,,,1.9961137328
1747019983532407330,-0.088,,,,1.9968838454
1747019983540108456,-0.095,,,,1.997653958
1747019983547809582,-0.088,,,,1.9984240706
1747019983555510708,-0.071,,,,1.9991941832
1747019983563211834,-0.066,,,,1.9999642958
1747019983570912960,-0.085,,,,2.0007344084
1747019983578614086,-0.098,,,,2.001504521
1747019983586315212,-0.078,,,,2.0022746336
1747019983594016338,-0.061,,,,2.0030447462
1747019983601717464,-0.066,,,,2.0038148588
1747019983609418590,-0.078,,,,2.0045849714
1747019983617119716,-0.08,,,,2.005355084
1747019983624820842,-0.056,,,,2.0061251966
1747019983632521968,-0.031,,,,2.0068953092
1747019983640223094,-0.049,,,,2.0076654218
1747019983647924220,-0.083,,,,2.0084355344
1747019983655625346,-0.085,,,,2.009205647
1747019983663326472,-0.061,,,,2.0099757596
1747019983671027598,-0.063,,,,2.0107458722
1747019983678728724,-0.063,,,,2.0115159848
1747019983686429850,-0.029,,,,2.0122860974
1747019983694130976,-0.029,,,,2.01305621
1747019983701832102,-0.061,,,,2.0138263226
1747019983709533228,-0.068,,,,2.0145964352
1747019983717234354,-0.061,,,,2.0153665478
1747019983724935480,-0.061,,,,2.0161366604
1747019983732636606,-0.058,,,,2.016906773
1747019983740337732,-0.049,,,,2.0176768856
1747019983748038858,-0.036,,,,2.0184469982
1747019983755739984,-0.036,,,,2.0192171108
1747019983763441110,-0.031,,,,2.0199872234
1747019983771142236,-0.002,,,,2.020757336
1747019983778843362,0.012,,,,2.0215274486
1747019983786544488,-0.002,,,,2.0222975612
1747019983794245614,-0.024,,,,2.0230676738
1747019983801946792,-0.031,,,,2.0238377916
1747019983809647918,-0.026,,,,2.0246079042
1747019983817349044,-0.019,,,,2.0253780168
1747019983825050170,-0.014,,,,2.0261481294
1747019983832751296,-0.009,,,,2.026918242
1747019983840452422,-0.007,,,,2.0276883546
1747019983848153548,-0.019,,,,2.0284584672
1747019983855854674,-0.068,,,,2.0292285798
1747019983863555800,-0.031,,,,2.0299986924
1747019983871256926,0.35,,,,2.030768805
1747019983878958052,1.079,,,,2.0315389176
1747019983886659178,1.445,,,,2.0323090302
1747019983894360304,0.723,,,,2.0330791428
1747019983902061430,-0.468,,,,2.0338492554
1747019983909762556,-0.856,,,,2.034619368
1747019983917463682,-0.478,,,,2.0353894806
1747019983925164808,-0.22,,,,2.0361595932
1747019983932865934,-0.164,,,,2.0369297058
1747019983940567060,-0.029,,,,2.0376998184
1747019983948268186,0.051,,,,2.038469931
1747019983955969312,0.044,,,,2.0392400436
1747019983963670438,0.068,,,,2.0400101562
1747019983971371564,0.078,,,,2.0407802688
1747019983979072690,0.058,,,,2.0415503814
1747019983986773816,0.071,,,,2.042320494
1747019983994474942,0.085,,,,2.0430906066
1747019984002176068,0.098,,,,2.0438607192
1747019984009877194,0.137,,,,2.0446308318
1747019984017578320,0.154,,,,2.0454009444
1747019984025279446,0.144,,,,2.046171057
1747019984032980572,0.139,,,,2.0469411696
1747019984040681698,0.139,,,,2.0477112822
1747019984048382824,0.161,,,,2.0484813948
1747019984056083950,0.201,,,,2.0492515074
1747019984063785076,0.223,,,,2.05002162
1747019984071486202,0.24,,,,2.0507917326
1747019984079187328,0.255,,,,2.0515618452
1747019984086888454,0.26,,,,2.0523319578
1747019984094589580,0.25,,,,2.0531020704
1747019984102290706,0.262,,,,2.053872183
1747019984109991832,0.316,,,,2.0546422956
1747019984117692958,0.336,,,,2.0554124082
1747019984125394084,0.272,,,,2.0561825208
1747019984133095210,0.225,,,,2.0569526334
1747019984140796336,0.235,,,,2.057722746
1747019984148497462,0.23,,,,2.0584928586
1747019984156198588,0.201,,,,2.0592629712
1747019984163899714,0.112,,,,2.0600330838
1747019984171600840,0.019,,,,2.0608031964
1747019984179301966,-0.017,,,,2.061573309
1747019984187003092,-0.068,,,,2.0623434216
1747019984194704218,-0.149,,,,2.0631135342
1747019984202405344,-0.171,,,,2.0638836468
1747019984210106470,-0.152,,,,2.0646537594
1747019984217807596,-0.186,,,,2.065423872
1747019984225508722,-0.24,,,,2.0661939846
1747019984233209848,-0.213,,,,2.0669640972
1747019984240910974,-0.125,,,,2.0677342098
1747019984248612100,-0.068,,,,2.0685043224
1747019984256313226,-0.08,,,,2.069274435
1747019984264014352,-0.137,,,,2.0700445476
1747019984271715478,-0.184,,,,2.0708146602
1747019984279416604,-0.159,,,,2.0715847728
1747019984287117730,-0.09,,,,2.0723548854
1747019984294818856,-0.066,,,,2.073124998
1747019984302519982,-0.085,,,,2.0738951106
1747019984310221108,-0.068,,,,2.0746652232
1747019984317922234,-0.039,,,,2.0754353358
1747019984325623360,-0.134,,,,2.0762054484
1747019984333324486,-0.247,,,,2.076975561
1747019984341025612,-0.147,,,,2.0777456736
1747019984348726738,-0.039,,,,2.0785157862
1747019984356427864,-0.134,,,,2.0792858988
1747019984364129042,-0.144,70.0,909.0,,2.0800560166
1747019984371829750,0.004,,,,2.0808260874
1747019984379530458,-0.036,,,,2.0815961582
1747019984387231166,-0.211,,,,2.082366229
1747019984394931874,-0.218,,,,2.0831362998
1747019984402632582,-0.088,,,,2.0839063706
1747019984410333290,0.002,,,,2.0846764414
1747019984418033998,-0.046,,,,2.0854465122
1747019984425734706,-0.13,,,,2.086216583
1747019984433435414,-0.1,,,,2.0869866538
1747019984441136122,-0.083,,,,2.0877567246
1747019984448836830,-0.157,,,,2.0885267954
1747019984456537538,-0.125,,,,2.0892968662
1747019984464238246,-0.014,,,,2.090066937
1747019984471938954,-0.058,,,,2.0908370078
1747019984479639662,-0.139,,,,2.0916070786
1747019984487340370,-0.068,,,,2.0923771494
1747019984495041078,-0.017,,,,2.0931472202
1747019984502741786,-0.085,,,,2.093917291
1747019984510442494,-0.085,,,,2.0946873618
1747019984518143202,-0.041,,,,2.0954574326
1747019984525843910,-0.093,,,,2.0962275034
1747019984533544618,-0.122,,,,2.0969975742
1747019984541245326,-0.044,,,,2.097767645
1747019984548946034,-0.002,,,,2.0985377158
1747019984556646742,-0.068,,,,2.0993077866
1747019984564347450,-0.068,,,,2.1000778574
1747019984572048158,-0.012,,,,2.1008479282
1747019984579748866,-0.071,,,,2.101617999
1747019984587449574,-0.083,,,,2.1023880698
1747019984595150282,0.004,,,,2.1031581406
1747019984602850990,-0.012,,,,2.1039282114
1747019984610551698,-0.083,,,,2.1046982822
1747019984618252406,-0.068,,,,2.105468353
1747019984625953114,-0.017,,,,2.1062384238
1747019984633653822,-0.007,,,,2.1070084946
1747019984641354530,-0.002,,,,2.1077785654
1747019984649055238,0.031,,,,2.1085486362
1747019984656755946,0.009,,,,2.109318707
1747019984664456654,-0.041,,,,2.1100887778
1747019984672157362,-0.024,,,,2.1108588486
1747019984679858070,0.007,,,,2.1116289194
1747019984687558778,-0.029,,,,2.1123989902
1747019984695259486,-0.061,,,,2.113169061
1747019984702960194,0.002,,,,2.1139391318
1747019984710660902,0.017,,,,2.1147092026
1747019984718361610,-0.056,,,,2.1154792734
1747019984726062318,-0.066,,,,2.1162493442
1747019984733763026,0.029,,,,2.117019415
1747019984741463734,0.468,,,,2.1177894858
1747019984749164442,1.273,,,,2.1185595566
1747019984756865150,1.464,,,,2.1193296274
1747019984764565858,0.502,,,,2.1200996982
1747019984772266566,-0.598,,,,2.120869769
1747019984779967274,-0.807,,,,2.1216398398
1747019984787667982,-0.426,,,,2.1224099106
1747019984795368690,-0.24,,,,2.1231799814
1747019984803069398,-0.198,,,,2.1239500522
1747019984810770106,-0.014,,,,2.124720123
1747019984818470814,0.105,,,,2.1254901938
1747019984826171522,0.056,,,,2.1262602646
1747019984833872230,0.049,,,,2.1270303354
1747019984841572938,0.095,,,,2.1278004062
1747019984849273646,0.098,,,,2.128570477
1747019984856974354,0.098,,,,2.1293405478
1747019984864675062,0.105,,,,2.1301106186
1747019984872375770,0.1,,,,2.1308806894
1747019984880076478,0.132,,,,2.1316507602
1747019984887777186,0.179,,,,2.132420831
1747019984895477894,0.188,,,,2.1331909018
1747019984903178602,0.171,,,,2.1339609726
1747019984910879310,0.166,,,,2.1347310434
1747019984918580018,0.196,,,,2.1355011142
1747019984926280774,0.252,,,,2.1362711898
1747019984933981900,0.274,,,,2.1370413024
1747019984941683026,0.245,,,,2.137811415
1747019984949384152,0.284,,,,2.1385815276
1747019984957085278,0.355,,,,2.1393516402
1747019984964786404,0.323,,,,2.1401217528
1747019984972487530,0.294,,,,2.1408918654
1747019984980188656,0.348,,,,2.141661978
1747019984987889782,0.365,,,,2.1424320906
1747019984995590908,0.304,,,,2.1432022032
1747019985003292034,0.284,,,,2.1439723158
1747019985010993160,0.299,,,,2.1447424284
1747019985018694286,0.255,,,,2.145512541
1747019985026395412,0.191,,,,2.1462826536
1747019985034096538,0.103,,,,2.1470527662
1747019985041797664,0.039,,,,2.1478228788
1747019985049498790,0.007,,,,2.1485929914
1747019985057199916,-0.09,,,,2.149363104
1747019985064901042,-0.161,,,,2.1501332166
1747019985072602168,-0.142,,,,2.1509033292
1747019985080303294,-0.139,,,,2.1516734418
1747019985088004420,-0.149,,,,2.1524435544
1747019985095705546,-0.154,,,,2.153213667
1747019985103406672,-0.161,,,,2.1539837796
1747019985111107798,-0.132,,,,2.1547538922
1747019985118808924,-0.105,,,,2.1555240048
1747019985126510050,-0.093,,,,2.1562941174
1747019985134211176,-0.105,,,,2.15706423
1747019985141912302,-0.134,,,,2.1578343426
1747019985149613428,-0.088,,,,2.1586044552
1747019985157314554,-0.049,,,,2.1593745678
1747019985165015680,-0.071,,,,2.1601446804
1747019985172716806,-0.08,,,,2.160914793
1747019985180417932,-0.105,,,,2.1616849056
1747019985188119058,-0.093,,,,2.1624550182
1747019985195820184,-0.073,,,,2.1632251308
1747019985203521310,-0.125,,,,2.1639952434
1747019985211222436,-0.095,,,,2.164765356
1747019985218923562,-0.029,,,,2.1655354686
1747019985226624688,-0.068,,,,2.1663055812
1747019985234325814,-0.115,,,,2.1670756938
1747019985242026940,-0.085,,,,2.1678458064
1747019985249728066,-0.049,,,,2.168615919
1747019985257429192,-0.1,,,,2.1693860316
1747019985265130318,-0.152,,,,2.1701561442
1747019985272831444,-0.105,,,,2.1709262568
1747019985280532570,-0.058,,,,2.1716963694
1747019985288233696,-0.078,,,,2.172466482
1747019985295934822,-0.103,,,,2.1732365946
1747019985303635948,-0.071,,,,2.1740067072
1747019985311337074,-0.031,,,,2.1747768198
1747019985319038200,-0.063,,,,2.1755469324
