time,ecg,hr,rr,marker,norm_time
1747116501707198307,-0.089,63.0,,,0.0
1747116501714901105,-0.074,,,,0.0007702798
1747116501722603903,-0.067,,,,0.0015405596
1747116501730306701,-0.053,,,,0.0023108394
1747116501738009499,-0.033,,,,0.0030811192
1747116501745712297,-0.019,,,,0.003851399
1747116501753415095,0.002,,,,0.0046216788
1747116501761117893,0.029,,,,0.0053919586
1747116501768820691,0.053,,,,0.0061622384
1747116501776523489,0.079,,,,0.0069325182
1747116501784226287,0.116,,,,0.007702798
1747116501791929085,0.154,,,,0.0084730778
1747116501799631883,0.188,,,,0.0092433576
1747116501807334681,0.219,,,,0.0100136374
1747116501815037479,0.241,,,,0.0107839172
1747116501822740277,0.246,,,,0.011554197
1747116501830443075,0.232,,,,0.0123244768
1747116501838145873,0.207,,,,0.0130947566
1747116501845848671,0.176,,,,0.0138650364
1747116501853551469,0.13,,,,0.0146353162
1747116501861254267,0.067,,,,0.015405596
1747116501868957065,-0.002,,,,0.0161758758
1747116501876659863,-0.074,,,,0.0169461556
1747116501884362661,-0.137,,,,0.0177164354
1747116501892065459,-0.186,,,,0.0184867152
1747116501899768257,-0.222,,,,0.019256995
1747116501907471055,-0.246,,,,0.0200272748
1747116501915173853,-0.256,,,,0.0207975546
1747116501922876651,-0.258,,,,0.0215678344
1747116501930579449,-0.256,,,,0.0223381142
1747116501938282247,-0.251,,,,0.023108394
1747116501945985045,-0.239,,,,0.0238786738
1747116501953687843,-0.227,,,,0.0246489536
1747116501961390641,-0.217,,962.0,,0.0254192334
1747116501969093439,-0.205,,,,0.0261895132
1747116501976796237,-0.195,,,,0.026959793
1747116501984499035,-0.186,,,,0.0277300728
1747116501992201833,-0.178,,,,0.0285003526
1747116501999904631,-0.166,,,,0.0292706324
1747116502007607429,-0.159,,,,0.0300409122
1747116502015310227,-0.154,,,,0.030811192
1747116502023013025,-0.149,,,,0.0315814718
1747116502030715823,-0.147,,,,0.0323517516
1747116502038418621,-0.145,,,,0.0331220314
1747116502046121419,-0.142,,,,0.0338923112
1747116502053824217,-0.14,,,,0.034662591
1747116502061527015,-0.137,,,,0.0354328708
1747116502069229813,-0.14,,,,0.0362031506
1747116502076932611,-0.14,,,,0.0369734304
1747116502084635409,-0.137,,,,0.0377437102
1747116502092338207,-0.135,,,,0.03851399
1747116502100041005,-0.135,,,,0.0392842698
1747116502107743803,-0.137,,,,0.0400545496
1747116502115446601,-0.135,,,,0.0408248294
1747116502123149399,-0.132,,,,0.0415951092
1747116502130852197,-0.132,,,,0.042365389
1747116502138554995,-0.132,,,,0.0431356688
1747116502146257793,-0.128,,,,0.0439059486
1747116502153960591,-0.128,,,,0.0446762284
1747116502161663389,-0.128,,,,0.0454465082
1747116502169366187,-0.128,,,,0.046216788
1747116502177068985,-0.123,,,,0.0469870678
1747116502184771783,-0.123,,,,0.0477573476
1747116502192474581,-0.123,,,,0.0485276274
1747116502200177379,-0.12,,,,0.0492979072
1747116502207880177,-0.118,,,,0.050068187
1747116502215582975,-0.118,,,,0.0508384668
1747116502223285773,-0.116,,,,0.0516087466
1747116502230988571,-0.113,,,,0.0523790264
1747116502238691369,-0.108,,,,0.0531493062
1747116502246394167,-0.106,,,,0.053919586
1747116502254096965,-0.106,,,,0.0546898658
1747116502261799763,-0.103,,,,0.0554601456
1747116502269502629,-0.101,,,,0.0562304322
1747116502277205567,-0.101,,,,0.057000726
1747116502284908505,-0.099,,,,0.0577710198
1747116502292611443,-0.099,,,,0.0585413136
1747116502300314381,-0.096,,,,0.0593116074
1747116502308017319,-0.096,,,,0.0600819012
1747116502315720257,-0.096,,,,0.060852195
1747116502323423195,-0.094,,,,0.0616224888
1747116502331126133,-0.094,,,,0.0623927826
1747116502338829071,-0.094,,,,0.0631630764
1747116502346532009,-0.091,,,,0.0639333702
1747116502354234947,-0.089,,,,0.064703664
1747116502361937885,-0.087,,,,0.0654739578
1747116502369640823,-0.084,,,,0.0662442516
1747116502377343761,-0.087,,,,0.0670145454
1747116502385046699,-0.089,,,,0.0677848392
1747116502392749637,-0.089,,,,0.068555133
1747116502400452575,-0.082,,,,0.0693254268
1747116502408155513,-0.072,,,,0.0700957206
1747116502415858451,-0.06,,,,0.0708660144
1747116502423561389,-0.053,,,,0.0716363082
1747116502431264327,-0.048,,,,0.072406602
1747116502438967265,-0.048,,,,0.0731768958
1747116502446670203,-0.05,,,,0.0739471896
1747116502454373141,-0.053,,,,0.0747174834
1747116502462076079,-0.053,,,,0.0754877772
1747116502469779017,-0.065,,,,0.076258071
1747116502477481955,-0.082,,,,0.0770283648
1747116502485184893,-0.087,,,,0.0777986586
1747116502492887831,-0.084,,,,0.0785689524
1747116502500590769,-0.084,,,,0.0793392462
1747116502508293707,-0.087,,,,0.08010954
1747116502515996645,-0.087,,,,0.0808798338
1747116502523699583,-0.087,,,,0.0816501276
1747116502531402521,-0.089,,,,0.0824204214
1747116502539105459,-0.089,,,,0.0831907152
1747116502546808397,-0.087,,,,0.083961009
1747116502554511335,-0.087,,,,0.0847313028
1747116502562214273,-0.082,,,,0.0855015966
1747116502569917211,-0.077,,,,0.0862718904
1747116502577620149,-0.084,,,,0.0870421842
1747116502585323087,-0.067,,,,0.087812478
1747116502593026025,0.101,,,,0.0885827718
1747116502600728963,0.517,,,,0.0893530656
1747116502608431901,1.029,,,,0.0901233594
1747116502616134839,1.145,,,,0.0908936532
1747116502623837777,0.432,,,,0.091663947
1747116502631540715,-0.408,,,,0.0924342408
1747116502639243653,-0.413,,,,0.0932045346
1747116502646946591,-0.116,,,,0.0939748284
1747116502654649529,-0.171,,,,0.0947451222
1747116502662352467,-0.232,,,,0.095515416
1747116502670055405,-0.142,,,,0.0962857098
1747116502677758343,-0.13,,,,0.0970560036
1747116502685461281,-0.152,,,,0.0978262974
1747116502693164219,-0.12,,,,0.0985965912
1747116502700867157,-0.101,,,,0.099366885
1747116502708570095,-0.103,,,,0.1001371788
1747116502716273033,-0.087,,,,0.1009074726
1747116502723975971,-0.07,,,,0.1016777664
1747116502731678909,-0.065,,,,0.1024480602
1747116502739381847,-0.055,,,,0.103218354
1747116502747084785,-0.036,,,,0.1039886478
1747116502754787723,-0.021,,,,0.1047589416
1747116502762490661,-0.004,,,,0.1055292354
1747116502770193599,0.019,,,,0.1062995292
1747116502777896537,0.043,,,,0.107069823
1747116502785599475,0.072,,,,0.1078401168
1747116502793302413,0.103,,,,0.1086104106
1747116502801005351,0.14,,,,0.1093807044
1747116502808708289,0.178,,,,0.1101509982
1747116502816411227,0.21,,,,0.110921292
1747116502824114165,0.232,,,,0.1116915858
1747116502831817125,0.239,63.0,,,0.1124618818
1747116502839520202,0.232,,,,0.1132321895
1747116502847223279,0.207,,,,0.1140024972
1747116502854926356,0.171,,,,0.1147728049
1747116502862629433,0.128,,,,0.1155431126
1747116502870332510,0.07,,,,0.1163134203
1747116502878035587,-0.002,,,,0.117083728
1747116502885738664,-0.072,,,,0.1178540357
1747116502893441741,-0.135,,,,0.1186243434
1747116502901144818,-0.188,,942.0,,0.1193946511
1747116502908847895,-0.227,,,,0.1201649588
1747116502916550972,-0.253,,,,0.1209352665
1747116502924254049,-0.268,,,,0.1217055742
1747116502931957126,-0.273,,,,0.1224758819
1747116502939660203,-0.27,,,,0.1232461896
1747116502947363280,-0.263,,,,0.1240164973
1747116502955066357,-0.253,,,,0.124786805
1747116502962769434,-0.244,,,,0.1255571127
1747116502970472511,-0.234,,,,0.1263274204
1747116502978175588,-0.224,,,,0.1270977281
1747116502985878665,-0.212,,,,0.1278680358
1747116502993581742,-0.203,,,,0.1286383435
1747116503001284819,-0.195,,,,0.1294086512
1747116503008987896,-0.186,,,,0.1301789589
1747116503016690973,-0.178,,,,0.1309492666
1747116503024394050,-0.176,,,,0.1317195743
1747116503032097127,-0.174,,,,0.132489882
1747116503039800204,-0.166,,,,0.1332601897
1747116503047503281,-0.161,,,,0.1340304974
1747116503055206358,-0.164,,,,0.1348008051
1747116503062909435,-0.166,,,,0.1355711128
1747116503070612512,-0.164,,,,0.1363414205
1747116503078315589,-0.161,,,,0.1371117282
1747116503086018666,-0.159,,,,0.1378820359
1747116503093721743,-0.159,,,,0.1386523436
1747116503101424820,-0.161,,,,0.1394226513
1747116503109127897,-0.161,,,,0.140192959
1747116503116830974,-0.161,,,,0.1409632667
1747116503124534051,-0.159,,,,0.1417335744
1747116503132237128,-0.157,,,,0.1425038821
1747116503139940205,-0.157,,,,0.1432741898
1747116503147643282,-0.159,,,,0.1440444975
1747116503155346359,-0.159,,,,0.1448148052
1747116503163049436,-0.157,,,,0.1455851129
1747116503170752513,-0.157,,,,0.1463554206
1747116503178455590,-0.157,,,,0.1471257283
1747116503186158667,-0.154,,,,0.147896036
1747116503193861744,-0.152,,,,0.1486663437
1747116503201564821,-0.149,,,,0.1494366514
1747116503209267898,-0.147,,,,0.1502069591
1747116503216970975,-0.145,,,,0.1509772668
1747116503224674052,-0.147,,,,0.1517475745
1747116503232377129,-0.145,,,,0.1525178822
1747116503240080206,-0.14,,,,0.1532881899
1747116503247783283,-0.137,,,,0.1540584976
1747116503255486360,-0.14,,,,0.1548288053
1747116503263189437,-0.137,,,,0.155599113
1747116503270892514,-0.132,,,,0.1563694207
1747116503278595591,-0.13,,,,0.1571397284
1747116503286298668,-0.13,,,,0.1579100361
1747116503294001745,-0.13,,,,0.1586803438
1747116503301704822,-0.13,,,,0.1594506515
1747116503309407899,-0.13,,,,0.1602209592
1747116503317110976,-0.128,,,,0.1609912669
1747116503324814053,-0.125,,,,0.1617615746
1747116503332517130,-0.125,,,,0.1625318823
1747116503340220207,-0.128,,,,0.16330219
1747116503347923284,-0.123,,,,0.1640724977
1747116503355626361,-0.123,,,,0.1648428054
1747116503363329438,-0.128,,,,0.1656131131
1747116503371032515,-0.128,,,,0.1663834208
1747116503378735592,-0.12,,,,0.1671537285
1747116503386438669,-0.108,,,,0.1679240362
1747116503394141791,-0.096,,,,0.1686943484
1747116503401844589,-0.091,,,,0.1694646282
1747116503409547387,-0.087,,,,0.170234908
1747116503417250185,-0.087,,,,0.1710051878
1747116503424952983,-0.091,,,,0.1717754676
1747116503432655781,-0.094,,,,0.1725457474
1747116503440358579,-0.099,,,,0.1733160272
1747116503448061377,-0.113,,,,0.174086307
1747116503455764175,-0.12,,,,0.1748565868
1747116503463466973,-0.118,,,,0.1756268666
1747116503471169771,-0.116,,,,0.1763971464
1747116503478872569,-0.116,,,,0.1771674262
1747116503486575367,-0.118,,,,0.177937706
1747116503494278165,-0.12,,,,0.1787079858
1747116503501980963,-0.12,,,,0.1794782656
1747116503509683761,-0.12,,,,0.1802485454
1747116503517386559,-0.116,,,,0.1810188252
1747116503525089357,-0.116,,,,0.181789105
1747116503532792155,-0.118,,,,0.1825593848
1747116503540494953,-0.108,,,,0.1833296646
1747116503548197751,-0.103,,,,0.1840999444
1747116503555900549,-0.108,,,,0.1848702242
1747116503563603347,-0.058,,,,0.185640504
1747116503571306145,0.188,,,,0.1864107838
1747116503579008943,0.657,,,,0.1871810636
1747116503586711741,1.087,,,,0.1879513434
1747116503594414539,0.971,,,,0.1887216232
1747116503602117337,0.135,,,,0.189491903
1747116503609820135,-0.531,,,,0.1902621828
1747116503617522933,-0.389,,,,0.1910324626
1747116503625225731,-0.157,,,,0.1918027424
1747116503632928529,-0.234,,,,0.1925730222
1747116503640631327,-0.236,,,,0.193343302
1747116503648334125,-0.161,,,,0.1941135818
1747116503656036923,-0.171,,,,0.1948838616
1747116503663739721,-0.176,,,,0.1956541414
1747116503671442519,-0.137,,,,0.1964244212
1747116503679145317,-0.123,,,,0.197194701
1747116503686848115,-0.123,,,,0.1979649808
1747116503694550913,-0.106,,,,0.1987352606
1747116503702253711,-0.087,,,,0.1995055404
1747116503709956509,-0.077,,,,0.2002758202
1747116503717659307,-0.065,,,,0.2010461
1747116503725362105,-0.048,,,,0.2018163798
1747116503733064903,-0.033,,,,0.2025866596
1747116503740767701,-0.014,,,,0.2033569394
1747116503748470499,0.014,,,,0.2041272192
1747116503756173297,0.043,,,,0.204897499
1747116503763876095,0.074,,,,0.2056677788
1747116503771578893,0.111,,,,0.2064380586
1747116503779281691,0.157,,,,0.2072083384
1747116503786984489,0.203,,,,0.2079786182
1747116503794687287,0.236,,,,0.208748898
1747116503802390085,0.251,,,,0.2095191778
1747116503810092883,0.248,,,,0.2102894576
1747116503817795681,0.241,,,,0.2110597374
1747116503825498479,0.217,,,,0.2118300172
1747116503833201277,0.174,,,,0.212600297
1747116503840904075,0.12,,,,0.2133705768
1747116503848606873,0.05,,,,0.2141408566
1747116503856309671,-0.033,,,,0.2149111364
1747116503864012469,-0.118,,961.0,,0.2156814162
1747116503871715267,-0.19,,,,0.216451696
1747116503879418065,-0.248,,,,0.2172219758
1747116503887120863,-0.29,,,,0.2179922556
1747116503894823661,-0.314,,,,0.2187625354
1747116503902526459,-0.321,,,,0.2195328152
1747116503910229257,-0.321,,,,0.220303095
1747116503917932055,-0.316,,,,0.2210733748
1747116503925634853,-0.309,,,,0.2218436546
1747116503933337651,-0.304,,,,0.2226139344
1747116503941040449,-0.294,,,,0.2233842142
1747116503948743247,-0.28,,,,0.224154494
1747116503956446113,-0.263,63.0,,,0.2249247806
1747116503964148911,-0.246,,,,0.2256950604
1747116503971851709,-0.234,,,,0.2264653402
1747116503979554507,-0.222,,,,0.22723562
1747116503987257305,-0.212,,,,0.2280058998
1747116503994960103,-0.205,,,,0.2287761796
1747116504002662901,-0.2,,,,0.2295464594
1747116504010365699,-0.19,,,,0.2303167392
1747116504018068497,-0.183,,,,0.231087019
1747116504025771295,-0.183,,,,0.2318572988
1747116504033474093,-0.181,,,,0.2326275786
1747116504041176891,-0.174,,,,0.2333978584
1747116504048879689,-0.174,,,,0.2341681382
1747116504056582487,-0.178,,,,0.234938418
1747116504064285285,-0.176,,,,0.2357086978
1747116504071988083,-0.174,,,,0.2364789776
1747116504079690881,-0.174,,,,0.2372492574
1747116504087393679,-0.174,,,,0.2380195372
1747116504095096477,-0.171,,,,0.238789817
1747116504102799275,-0.171,,,,0.2395600968
1747116504110502073,-0.171,,,,0.2403303766
1747116504118204871,-0.169,,,,0.2411006564
1747116504125907669,-0.164,,,,0.2418709362
1747116504133610467,-0.164,,,,0.242641216
1747116504141313265,-0.164,,,,0.2434114958
1747116504149016063,-0.161,,,,0.2441817756
1747116504156718861,-0.157,,,,0.2449520554
1747116504164421659,-0.152,,,,0.2457223352
1747116504172124457,-0.159,,,,0.246492615
1747116504179827255,-0.157,,,,0.2472628948
1747116504187530053,-0.145,,,,0.2480331746
1747116504195232851,-0.145,,,,0.2488034544
1747116504202935649,-0.147,,,,0.2495737342
1747116504210638447,-0.145,,,,0.250344014
1747116504218341245,-0.142,,,,0.2511142938
1747116504226044043,-0.137,,,,0.2518845736
1747116504233746841,-0.13,,,,0.2526548534
1747116504241449639,-0.132,,,,0.2534251332
1747116504249152437,-0.135,,,,0.254195413
1747116504256855235,-0.128,,,,0.2549656928
1747116504264558033,-0.125,,,,0.2557359726
1747116504272260831,-0.125,,,,0.2565062524
1747116504279963629,-0.123,,,,0.2572765322
1747116504287666427,-0.12,,,,0.258046812
1747116504295369225,-0.12,,,,0.2588170918
1747116504303072023,-0.125,,,,0.2595873716
1747116504310774821,-0.123,,,,0.2603576514
1747116504318477619,-0.111,,,,0.2611279312
1747116504326180417,-0.096,,,,0.261898211
1747116504333883215,-0.084,,,,0.2626684908
1747116504341586013,-0.077,,,,0.2634387706
1747116504349288811,-0.072,,,,0.2642090504
1747116504356991609,-0.07,,,,0.2649793302
1747116504364694407,-0.074,,,,0.26574961
1747116504372397205,-0.077,,,,0.2665198898
1747116504380100003,-0.077,,,,0.2672901696
1747116504387802801,-0.091,,,,0.2680604494
1747116504395505599,-0.108,,,,0.2688307292
1747116504403208397,-0.108,,,,0.269601009
1747116504410911195,-0.101,,,,0.2703712888
1747116504418613993,-0.103,,,,0.2711415686
1747116504426316791,-0.111,,,,0.2719118484
1747116504434019589,-0.103,,,,0.2726821282
1747116504441722387,-0.094,,,,0.273452408
1747116504449425185,-0.096,,,,0.2742226878
1747116504457127983,-0.099,,,,0.2749929676
1747116504464830781,-0.089,,,,0.2757632474
1747116504472533579,-0.084,,,,0.2765335272
1747116504480236377,-0.084,,,,0.277303807
1747116504487939175,-0.082,,,,0.2780740868
1747116504495641973,-0.082,,,,0.2788443666
1747116504503344771,-0.041,,,,0.2796146464
1747116504511047569,0.176,,,,0.2803849262
1747116504518750435,0.63,,,,0.2811552128
1747116504526453233,1.099,,,,0.2819254926
1747116504534156031,1.08,,,,0.2826957724
1747116504541858829,0.282,,,,0.2834660522
1747116504549561627,-0.476,,,,0.284236332
1747116504557264425,-0.396,,,,0.2850066118
1747116504564967223,-0.125,,,,0.2857768916
1747116504572670021,-0.188,,,,0.2865471714
1747116504580372819,-0.203,,,,0.2873174512
1747116504588075617,-0.12,,,,0.288087731
1747116504595778415,-0.125,,,,0.2888580108
1747116504603481213,-0.135,,,,0.2896282906
1747116504611184011,-0.099,,,,0.2903985704
1747116504618886809,-0.084,,,,0.2911688502
1747116504626589607,-0.082,,,,0.29193913
1747116504634292405,-0.065,,,,0.2927094098
1747116504641995203,-0.05,,,,0.2934796896
1747116504649698001,-0.041,,,,0.2942499694
1747116504657400799,-0.026,,,,0.2950202492
1747116504665103597,-0.009,,,,0.295790529
1747116504672806395,0.004,,,,0.2965608088
1747116504680509193,0.029,,,,0.2973310886
1747116504688211991,0.055,,,,0.2981013684
1747116504695914789,0.084,,,,0.2988716482
1747116504703617587,0.118,,,,0.299641928
1747116504711320385,0.157,,,,0.3004122078
1747116504719023183,0.195,,,,0.3011824876
1747116504726725981,0.239,,,,0.3019527674
1747116504734428779,0.275,,,,0.3027230472
1747116504742131577,0.297,,,,0.303493327
1747116504749834375,0.299,,,,0.3042636068
1747116504757537173,0.287,,,,0.3050338866
1747116504765239971,0.261,,,,0.3058041664
1747116504772942769,0.217,,,,0.3065744462
1747116504780645567,0.161,,,,0.307344726
1747116504788348365,0.087,,,,0.3081150058
1747116504796051163,0.0,,,,0.3088852856
1747116504803753961,-0.082,,,,0.3096555654
1747116504811456759,-0.152,,,,0.3104258452
1747116504819159557,-0.205,,,,0.311196125
1747116504826862355,-0.241,,,,0.3119664048
1747116504834565153,-0.265,,972.0,,0.3127366846
1747116504842267951,-0.275,,,,0.3135069644
1747116504849970749,-0.275,,,,0.3142772442
1747116504857673547,-0.273,,,,0.315047524
1747116504865376345,-0.265,,,,0.3158178038
1747116504873079143,-0.256,,,,0.3165880836
1747116504880781941,-0.241,,,,0.3173583634
1747116504888484739,-0.232,,,,0.3181286432
1747116504896187537,-0.222,,,,0.318898923
1747116504903890335,-0.207,,,,0.3196692028
1747116504911593133,-0.195,,,,0.3204394826
1747116504919295931,-0.186,,,,0.3212097624
1747116504926998729,-0.176,,,,0.3219800422
1747116504934701527,-0.169,,,,0.322750322
1747116504942404325,-0.159,,,,0.3235206018
1747116504950107123,-0.152,,,,0.3242908816
1747116504957809921,-0.147,,,,0.3250611614
1747116504965512719,-0.14,,,,0.3258314412
1747116504973215517,-0.135,,,,0.326601721
1747116504980918315,-0.132,,,,0.3273720008
1747116504988621113,-0.132,,,,0.3281422806
1747116504996323911,-0.132,,,,0.3289125604
1747116505004026709,-0.13,,,,0.3296828402
1747116505011729507,-0.132,,,,0.33045312
1747116505019432305,-0.132,,,,0.3312233998
1747116505027135103,-0.132,,,,0.3319936796
1747116505034837901,-0.132,,,,0.3327639594
1747116505042540699,-0.132,,,,0.3335342392
1747116505050243497,-0.13,,,,0.334304519
1747116505057946295,-0.128,,,,0.3350747988
1747116505065649093,-0.128,,,,0.3358450786
1747116505073351891,-0.128,,,,0.3366153584
1747116505081054757,-0.125,62.0,,,0.337385645
1747116505088757625,-0.123,,,,0.3381559318
1747116505096460493,-0.123,,,,0.3389262186
1747116505104163361,-0.12,,,,0.3396965054
1747116505111866229,-0.118,,,,0.3404667922
1747116505119569097,-0.113,,,,0.341237079
1747116505127271965,-0.111,,,,0.3420073658
1747116505134974833,-0.111,,,,0.3427776526
1747116505142677701,-0.108,,,,0.3435479394
1747116505150380569,-0.108,,,,0.3443182262
1747116505158083437,-0.106,,,,0.345088513
1747116505165786305,-0.103,,,,0.3458587998
1747116505173489173,-0.103,,,,0.3466290866
1747116505181192041,-0.101,,,,0.3473993734
1747116505188894909,-0.096,,,,0.3481696602
1747116505196597777,-0.094,,,,0.348939947
1747116505204300645,-0.091,,,,0.3497102338
1747116505212003513,-0.091,,,,0.3504805206
1747116505219706381,-0.089,,,,0.3512508074
1747116505227409249,-0.089,,,,0.3520210942
1747116505235112117,-0.087,,,,0.352791381
1747116505242814985,-0.084,,,,0.3535616678
1747116505250517853,-0.084,,,,0.3543319546
1747116505258220721,-0.084,,,,0.3551022414
1747116505265923589,-0.082,,,,0.3558725282
1747116505273626457,-0.087,,,,0.356642815
1747116505281329325,-0.089,,,,0.3574131018
1747116505289032193,-0.087,,,,0.3581833886
1747116505296735061,-0.072,,,,0.3589536754
1747116505304437929,-0.06,,,,0.3597239622
1747116505312140797,-0.055,,,,0.360494249
1747116505319843665,-0.05,,,,0.3612645358
1747116505327546533,-0.043,,,,0.3620348226
1747116505335249401,-0.045,,,,0.3628051094
1747116505342952269,-0.05,,,,0.3635753962
1747116505350655137,-0.053,,,,0.364345683
1747116505358358005,-0.055,,,,0.3651159698
1747116505366060873,-0.072,,,,0.3658862566
1747116505373763741,-0.087,,,,0.3666565434
1747116505381466609,-0.082,,,,0.3674268302
1747116505389169477,-0.079,,,,0.368197117
1747116505396872345,-0.082,,,,0.3689674038
1747116505404575213,-0.084,,,,0.3697376906
1747116505412278081,-0.084,,,,0.3705079774
1747116505419980949,-0.084,,,,0.3712782642
1747116505427683817,-0.082,,,,0.372048551
1747116505435386685,-0.079,,,,0.3728188378
1747116505443089553,-0.074,,,,0.3735891246
1747116505450792421,-0.072,,,,0.3743594114
1747116505458495289,-0.07,,,,0.3751296982
1747116505466198157,-0.074,,,,0.375899985
1747116505473901025,-0.067,,,,0.3766702718
1747116505481603893,0.067,,,,0.3774405586
1747116505489306761,0.449,,,,0.3782108454
1747116505497009629,0.993,,,,0.3789811322
1747116505504712497,1.273,,,,0.379751419
1747116505512415365,0.6930000000000001,,,,0.3805217058
1747116505520118233,-0.29,,,,0.3812919926
1747116505527821101,-0.49,,,,0.3820622794
1747116505535523969,-0.137,,,,0.3828325662
1747116505543226837,-0.13,,,,0.383602853
1747116505550929705,-0.244,,,,0.3843731398
1747116505558632573,-0.159,,,,0.3851434266
1747116505566335441,-0.116,,,,0.3859137134
1747116505574038309,-0.152,,,,0.3866840002
1747116505581741177,-0.125,,,,0.387454287
1747116505589444045,-0.096,,,,0.3882245738
1747116505597146913,-0.099,,,,0.3889948606
1747116505604849781,-0.084,,,,0.3897651474
1747116505612552649,-0.065,,,,0.3905354342
1747116505620255517,-0.06,,,,0.391305721
1747116505627958385,-0.05,,,,0.3920760078
1747116505635661253,-0.031,,,,0.3928462946
1747116505643364170,-0.014,62.0,,,0.3936165863
1747116505651067317,0.0,,,,0.394386901
1747116505658770464,0.024,,,,0.3951572157
1747116505666473611,0.053,,,,0.3959275304
1747116505674176758,0.082,,,,0.3966978451
1747116505681879905,0.118,,,,0.3974681598
1747116505689583052,0.157,,,,0.3982384745
1747116505697286199,0.195,,,,0.3990087892
1747116505704989346,0.236,,,,0.3997791039
1747116505712692493,0.265,,,,0.4005494186
1747116505720395640,0.28,,,,0.4013197333
1747116505728098787,0.273,,,,0.402090048
1747116505735801934,0.253,,,,0.4028603627
1747116505743505081,0.224,,,,0.4036306774
1747116505751208228,0.178,,,,0.4044009921
1747116505758911375,0.113,,926.0,,0.4051713068
1747116505766614522,0.038,,,,0.4059416215
1747116505774317669,-0.041,,,,0.4067119362
1747116505782020816,-0.111,,,,0.4074822509
1747116505789723963,-0.171,,,,0.4082525656
1747116505797427110,-0.212,,,,0.4090228803
1747116505805130257,-0.239,,,,0.409793195
1747116505812833404,-0.253,,,,0.4105635097
1747116505820536551,-0.258,,,,0.4113338244
1747116505828239698,-0.256,,,,0.4121041391
1747116505835942845,-0.251,,,,0.4128744538
1747116505843645992,-0.241,,,,0.4136447685
1747116505851349139,-0.234,,,,0.4144150832
1747116505859052286,-0.224,,,,0.4151853979
1747116505866755433,-0.215,,,,0.4159557126
1747116505874458580,-0.205,,,,0.4167260273
1747116505882161727,-0.195,,,,0.417496342
1747116505889864874,-0.188,,,,0.4182666567
1747116505897568021,-0.178,,,,0.4190369714
1747116505905271168,-0.171,,,,0.4198072861
1747116505912974315,-0.164,,,,0.4205776008
1747116505920677462,-0.157,,,,0.4213479155
1747116505928380609,-0.149,,,,0.4221182302
1747116505936083756,-0.145,,,,0.4228885449
1747116505943786903,-0.14,,,,0.4236588596
1747116505951490050,-0.135,,,,0.4244291743
1747116505959193197,-0.132,,,,0.425199489
1747116505966896344,-0.132,,,,0.4259698037
1747116505974599491,-0.13,,,,0.4267401184
1747116505982302638,-0.128,,,,0.4275104331
1747116505990005785,-0.125,,,,0.4282807478
1747116505997708932,-0.128,,,,0.4290510625
1747116506005412079,-0.125,,,,0.4298213772
1747116506013115226,-0.125,,,,0.4305916919
1747116506020818373,-0.123,,,,0.4313620066
1747116506028521520,-0.123,,,,0.4321323213
1747116506036224667,-0.123,,,,0.432902636
1747116506043927814,-0.118,,,,0.4336729507
1747116506051630961,-0.118,,,,0.4344432654
1747116506059334108,-0.116,,,,0.4352135801
1747116506067037255,-0.116,,,,0.4359838948
1747116506074740402,-0.116,,,,0.4367542095
1747116506082443549,-0.113,,,,0.4375245242
1747116506090146696,-0.116,,,,0.4382948389
1747116506097849843,-0.113,,,,0.4390651536
1747116506105552990,-0.111,,,,0.4398354683
1747116506113256137,-0.111,,,,0.440605783
1747116506120959284,-0.108,,,,0.4413760977
1747116506128662431,-0.106,,,,0.4421464124
1747116506136365578,-0.106,,,,0.4429167271
1747116506144068725,-0.103,,,,0.4436870418
1747116506151771872,-0.106,,,,0.4444573565
1747116506159475019,-0.103,,,,0.4452276712
1747116506167178166,-0.099,,,,0.4459979859
1747116506174881313,-0.096,,,,0.4467683006
1747116506182584460,-0.096,,,,0.4475386153
1747116506190287607,-0.094,,,,0.44830893
1747116506197990754,-0.091,,,,0.4490792447
1747116506205693923,-0.089,,,,0.4498495616
1747116506213396721,-0.089,,,,0.4506198414
1747116506221099519,-0.087,,,,0.4513901212
1747116506228802317,-0.087,,,,0.452160401
1747116506236505115,-0.087,,,,0.4529306808
1747116506244207913,-0.084,,,,0.4537009606
1747116506251910711,-0.084,,,,0.4544712404
1747116506259613509,-0.082,,,,0.4552415202
1747116506267316307,-0.079,,,,0.4560118
1747116506275019105,-0.082,,,,0.4567820798
1747116506282721903,-0.082,,,,0.4575523596
1747116506290424701,-0.082,,,,0.4583226394
1747116506298127499,-0.079,,,,0.4590929192
1747116506305830297,-0.07,,,,0.459863199
1747116506313533095,-0.055,,,,0.4606334788
1747116506321235893,-0.048,,,,0.4614037586
1747116506328938691,-0.043,,,,0.4621740384
1747116506336641489,-0.038,,,,0.4629443182
1747116506344344287,-0.041,,,,0.463714598
1747116506352047085,-0.045,,,,0.4644848778
1747116506359749883,-0.045,,,,0.4652551576
1747116506367452681,-0.053,,,,0.4660254374
1747116506375155479,-0.072,,,,0.4667957172
1747116506382858277,-0.084,,,,0.467565997
1747116506390561075,-0.079,,,,0.4683362768
1747116506398263873,-0.077,,,,0.4691065566
1747116506405966671,-0.082,,,,0.4698768364
1747116506413669469,-0.084,,,,0.4706471162
1747116506421372267,-0.084,,,,0.471417396
1747116506429075065,-0.084,,,,0.4721876758
1747116506436777863,-0.084,,,,0.4729579556
1747116506444480661,-0.084,,,,0.4737282354
1747116506452183459,-0.084,,,,0.4744985152
1747116506459886257,-0.082,,,,0.475268795
1747116506467589055,-0.079,,,,0.4760390748
1747116506475291853,-0.084,,,,0.4768093546
1747116506482994651,-0.087,,,,0.4775796344
1747116506490697449,-0.002,,,,0.4783499142
1747116506498400247,0.309,,,,0.479120194
1747116506506103045,0.8260000000000001,,,,0.4798904738
1747116506513805843,1.213,,,,0.4806607536
1747116506521508641,0.874,,,,0.4814310334
1747116506529211439,-0.089,,,,0.4822013132
1747116506536914237,-0.519,,,,0.482971593
1747116506544617035,-0.207,,,,0.4837418728
1747116506552319833,-0.094,,,,0.4845121526
1747116506560022631,-0.222,,,,0.4852824324
1747116506567725429,-0.176,,,,0.4860527122
1747116506575428227,-0.108,,,,0.486822992
1747116506583131025,-0.14,,,,0.4875932718
1747116506590833823,-0.132,,,,0.4883635516
1747116506598536621,-0.094,,,,0.4891338314
1747116506606239419,-0.096,,,,0.4899041112
1747116506613942217,-0.094,,,,0.490674391
1747116506621645015,-0.074,,,,0.4914446708
1747116506629347813,-0.067,,,,0.4922149506
1747116506637050611,-0.06,,,,0.4929852304
1747116506644753409,-0.043,,,,0.4937555102
1747116506652456207,-0.029,,,,0.49452579
1747116506660159005,-0.014,,,,0.4952960698
1747116506667861803,0.007,,904.0,,0.4960663496
1747116506675564601,0.033,,,,0.4968366294
1747116506683267399,0.062,,,,0.4976069092
1747116506690970197,0.094,,,,0.498377189
1747116506698672995,0.132,,,,0.4991474688
1747116506706375793,0.171,,,,0.4999177486
1747116506714078591,0.21,,,,0.5006880284
1747116506721781389,0.241,,,,0.5014583082
1747116506729484187,0.258,,,,0.502228588
1747116506737186985,0.258,,,,0.5029988678
1747116506744889783,0.246,,,,0.5037691476
1747116506752592581,0.217,,,,0.5045394274
1747116506760295379,0.181,,,,0.5053097072
1747116506767998245,0.128,62.0,,,0.5060799938
1747116506775701322,0.058,,,,0.5068503015
1747116506783404399,-0.019,,,,0.5076206092
1747116506791107476,-0.091,,,,0.5083909169
1747116506798810553,-0.152,,,,0.5091612246
1747116506806513630,-0.2,,,,0.5099315323
1747116506814216707,-0.234,,,,0.51070184
1747116506821919784,-0.251,,,,0.5114721477
1747116506829622861,-0.258,,,,0.5122424554
1747116506837325938,-0.261,,,,0.5130127631
1747116506845029015,-0.256,,,,0.5137830708
1747116506852732092,-0.248,,,,0.5145533785
1747116506860435169,-0.239,,,,0.5153236862
1747116506868138246,-0.229,,,,0.5160939939
1747116506875841323,-0.219,,,,0.5168643016
1747116506883544400,-0.207,,,,0.5176346093
1747116506891247477,-0.198,,,,0.518404917
1747116506898950554,-0.186,,,,0.5191752247
1747116506906653631,-0.176,,,,0.5199455324
1747116506914356708,-0.166,,,,0.5207158401
1747116506922059785,-0.159,,,,0.5214861478
1747116506929762862,-0.157,,,,0.5222564555
1747116506937465939,-0.149,,,,0.5230267632
1747116506945169016,-0.145,,,,0.5237970709
1747116506952872093,-0.142,,,,0.5245673786
1747116506960575170,-0.14,,,,0.5253376863
1747116506968278247,-0.137,,,,0.526107994
1747116506975981324,-0.137,,,,0.5268783017
1747116506983684401,-0.137,,,,0.5276486094
1747116506991387478,-0.137,,,,0.5284189171
1747116506999090555,-0.132,,,,0.5291892248
1747116507006793632,-0.132,,,,0.5299595325
1747116507014496709,-0.135,,,,0.5307298402
1747116507022199786,-0.132,,,,0.5315001479
1747116507029902863,-0.132,,,,0.5322704556
1747116507037605940,-0.13,,,,0.5330407633
1747116507045309017,-0.125,,,,0.533811071
1747116507053012094,-0.125,,,,0.5345813787
1747116507060715171,-0.125,,,,0.5353516864
1747116507068418248,-0.123,,,,0.5361219941
1747116507076121325,-0.123,,,,0.5368923018
1747116507083824402,-0.123,,,,0.5376626095
1747116507091527479,-0.12,,,,0.5384329172
1747116507099230556,-0.118,,,,0.5392032249
1747116507106933633,-0.118,,,,0.5399735326
1747116507114636710,-0.118,,,,0.5407438403
1747116507122339787,-0.116,,,,0.541514148
1747116507130042864,-0.116,,,,0.5422844557
1747116507137745941,-0.113,,,,0.5430547634
1747116507145449018,-0.111,,,,0.5438250711
1747116507153152095,-0.108,,,,0.5445953788
1747116507160855172,-0.108,,,,0.5453656865
1747116507168558249,-0.108,,,,0.5461359942
1747116507176261326,-0.108,,,,0.5469063019
1747116507183964403,-0.106,,,,0.5476766096
1747116507191667480,-0.103,,,,0.5484469173
1747116507199370557,-0.101,,,,0.549217225
1747116507207073634,-0.101,,,,0.5499875327
1747116507214776711,-0.099,,,,0.5507578404
1747116507222479788,-0.096,,,,0.5515281481
1747116507230182865,-0.094,,,,0.5522984558
1747116507237885942,-0.094,,,,0.5530687635
1747116507245589019,-0.091,,,,0.5538390712
1747116507253292096,-0.091,,,,0.5546093789
1747116507260995173,-0.091,,,,0.5553796866
1747116507268698250,-0.089,,,,0.5561499943
1747116507276401327,-0.087,,,,0.556920302
1747116507284104404,-0.087,,,,0.5576906097
1747116507291807481,-0.089,,,,0.5584609174
1747116507299510558,-0.091,,,,0.5592312251
1747116507307213635,-0.094,,,,0.5600015328
1747116507314916712,-0.087,,,,0.5607718405
1747116507322619789,-0.074,,,,0.5615421482
1747116507330322915,-0.065,,,,0.5623124608
1747116507338025853,-0.055,,,,0.5630827546
1747116507345728791,-0.05,,,,0.5638530484
1747116507353431729,-0.053,,,,0.5646233422
1747116507361134667,-0.058,,,,0.565393636
1747116507368837605,-0.058,,,,0.5661639298
1747116507376540543,-0.06,,,,0.5669342236
1747116507384243481,-0.072,,,,0.5677045174
1747116507391946419,-0.091,,,,0.5684748112
1747116507399649357,-0.094,,,,0.569245105
1747116507407352295,-0.089,,,,0.5700153988
1747116507415055233,-0.089,,,,0.5707856926
1747116507422758171,-0.091,,,,0.5715559864
1747116507430461109,-0.089,,,,0.5723262802
1747116507438164047,-0.089,,,,0.573096574
1747116507445866985,-0.089,,,,0.5738668678
1747116507453569923,-0.087,,,,0.5746371616
1747116507461272861,-0.082,,,,0.5754074554
1747116507468975799,-0.082,,,,0.5761777492
1747116507476678737,-0.079,,,,0.576948043
1747116507484381675,-0.077,,,,0.5777183368
1747116507492084613,-0.082,,,,0.5784886306
1747116507499787551,-0.072,,,,0.5792589244
1747116507507490489,0.065,,,,0.5800292182
1747116507515193427,0.437,,,,0.580799512
1747116507522896365,0.952,,,,0.5815698058
1747116507530599303,1.179,,,,0.5823400996
1747116507538302241,0.592,,,,0.5831103934
1747116507546005179,-0.311,,,,0.5838806872
1747116507553708117,-0.459,,,,0.584650981
1747116507561411055,-0.137,,,,0.5854212748
1747116507569113993,-0.142,,,,0.5861915686
1747116507576816931,-0.234,,,,0.5869618624
1747116507584519869,-0.154,,,,0.5877321562
1747116507592222807,-0.123,,,,0.58850245
1747116507599925745,-0.152,,,,0.5892727438
1747116507607628683,-0.128,,,,0.5900430376
1747116507615331621,-0.101,,951.0,,0.5908133314
1747116507623034559,-0.103,,,,0.5915836252
1747116507630737497,-0.091,,,,0.592353919
1747116507638440435,-0.072,,,,0.5931242128
1747116507646143373,-0.062,,,,0.5938945066
1747116507653846311,-0.055,,,,0.5946648004
1747116507661549249,-0.038,,,,0.5954350942
1747116507669252187,-0.024,,,,0.596205388
1747116507676955125,-0.007,,,,0.5969756818
1747116507684658063,0.014,,,,0.5977459756
1747116507692361001,0.038,,,,0.5985162694
1747116507700063939,0.065,,,,0.5992865632
1747116507707766877,0.094,,,,0.600056857
1747116507715469815,0.13,,,,0.6008271508
1747116507723172753,0.166,,,,0.6015974446
1747116507730875691,0.203,,,,0.6023677384
1747116507738578629,0.229,,,,0.6031380322
1747116507746281567,0.239,,,,0.603908326
1747116507753984505,0.234,,,,0.6046786198
1747116507761687443,0.215,,,,0.6054489136
1747116507769390381,0.183,,,,0.6062192074
1747116507777093319,0.145,,,,0.6069895012
1747116507784796257,0.091,,,,0.607759795
1747116507792499195,0.019,,,,0.6085300888
1747116507800202133,-0.055,,,,0.6093003826
1747116507807905071,-0.12,,,,0.6100706764
1747116507815608009,-0.176,,,,0.6108409702
1747116507823310947,-0.219,,,,0.611611264
1747116507831013885,-0.248,,,,0.6123815578
1747116507838716823,-0.261,,,,0.6131518516
1747116507846419761,-0.27,,,,0.6139221454
1747116507854122699,-0.273,,,,0.6146924392
1747116507861825637,-0.265,,,,0.615462733
1747116507869528575,-0.256,,,,0.6162330268
1747116507877231513,-0.248,,,,0.6170033206
1747116507884934451,-0.241,,,,0.6177736144
1747116507892637407,-0.227,62.0,,,0.61854391
1747116507900340205,-0.212,,,,0.6193141898
1747116507908043003,-0.203,,,,0.6200844696
1747116507915745801,-0.195,,,,0.6208547494
1747116507923448599,-0.186,,,,0.6216250292
1747116507931151397,-0.178,,,,0.622395309
1747116507938854195,-0.171,,,,0.6231655888
1747116507946556993,-0.164,,,,0.6239358686
1747116507954259791,-0.161,,,,0.6247061484
1747116507961962589,-0.161,,,,0.6254764282
1747116507969665387,-0.157,,,,0.626246708
1747116507977368185,-0.154,,,,0.6270169878
1747116507985070983,-0.152,,,,0.6277872676
1747116507992773781,-0.149,,,,0.6285575474
1747116508000476579,-0.147,,,,0.6293278272
1747116508008179377,-0.149,,,,0.630098107
1747116508015882175,-0.149,,,,0.6308683868
1747116508023584973,-0.147,,,,0.6316386666
1747116508031287771,-0.145,,,,0.6324089464
1747116508038990569,-0.145,,,,0.6331792262
1747116508046693367,-0.147,,,,0.633949506
1747116508054396165,-0.147,,,,0.6347197858
1747116508062098963,-0.145,,,,0.6354900656
1747116508069801761,-0.142,,,,0.6362603454
1747116508077504559,-0.142,,,,0.6370306252
1747116508085207357,-0.142,,,,0.637800905
1747116508092910155,-0.14,,,,0.6385711848
1747116508100612953,-0.14,,,,0.6393414646
1747116508108315751,-0.14,,,,0.6401117444
1747116508116018549,-0.137,,,,0.6408820242
1747116508123721347,-0.137,,,,0.641652304
1747116508131424145,-0.135,,,,0.6424225838
1747116508139126943,-0.135,,,,0.6431928636
1747116508146829741,-0.137,,,,0.6439631434
1747116508154532539,-0.132,,,,0.6447334232
1747116508162235337,-0.13,,,,0.645503703
1747116508169938135,-0.132,,,,0.6462739828
1747116508177640933,-0.13,,,,0.6470442626
1747116508185343731,-0.128,,,,0.6478145424
1747116508193046529,-0.128,,,,0.6485848222
1747116508200749327,-0.128,,,,0.649355102
1747116508208452125,-0.125,,,,0.6501253818
1747116508216154923,-0.12,,,,0.6508956616
1747116508223857721,-0.12,,,,0.6516659414
1747116508231560519,-0.123,,,,0.6524362212
1747116508239263317,-0.12,,,,0.653206501
1747116508246966115,-0.118,,,,0.6539767808
1747116508254668913,-0.116,,,,0.6547470606
1747116508262371711,-0.118,,,,0.6555173404
1747116508270074509,-0.123,,,,0.6562876202
1747116508277777307,-0.123,,,,0.6570579
1747116508285480105,-0.12,,,,0.6578281798
1747116508293182903,-0.113,,,,0.6585984596
1747116508300885701,-0.103,,,,0.6593687394
1747116508308588499,-0.096,,,,0.6601390192
1747116508316291297,-0.087,,,,0.660909299
1747116508323994095,-0.079,,,,0.6616795788
1747116508331696893,-0.079,,,,0.6624498586
1747116508339399691,-0.087,,,,0.6632201384
1747116508347102489,-0.091,,,,0.6639904182
1747116508354805287,-0.091,,,,0.664760698
1747116508362508085,-0.101,,,,0.6655309778
1747116508370210883,-0.123,,,,0.6663012576
1747116508377913681,-0.128,,,,0.6670715374
1747116508385616479,-0.118,,,,0.6678418172
1747116508393319277,-0.116,,,,0.668612097
1747116508401022075,-0.12,,,,0.6693823768
1747116508408724873,-0.12,,,,0.6701526566
1747116508416427671,-0.12,,,,0.6709229364
1747116508424130469,-0.125,,,,0.6716932162
1747116508431833267,-0.125,,,,0.672463496
1747116508439536065,-0.118,,,,0.6732337758
1747116508447238863,-0.113,,,,0.6740040556
1747116508454941729,-0.111,,,,0.6747743422
1747116508462644597,-0.111,,,,0.675544629
1747116508470347465,-0.111,,,,0.6763149158
1747116508478050333,-0.079,,,,0.6770852026
1747116508485753201,0.108,,,,0.6778554894
1747116508493456069,0.531,,,,0.6786257762
1747116508501158937,1.01,,,,0.679396063
1747116508508861805,1.07,,,,0.6801663498
1747116508516564673,0.355,,,,0.6809366366
1747116508524267541,-0.449,,,,0.6817069234
1747116508531970409,-0.459,,,,0.6824772102
1747116508539673277,-0.171,,,,0.683247497
1747116508547376145,-0.207,,,,0.6840177838
1747116508555079013,-0.248,,,,0.6847880706
1747116508562781881,-0.164,,,,0.6855583574
1747116508570484749,-0.152,,,,0.6863286442
1747116508578187617,-0.171,,,,0.687098931
1747116508585890485,-0.14,,,,0.6878692178
1747116508593593353,-0.118,,978.0,,0.6886395046
1747116508601296221,-0.12,,,,0.6894097914
1747116508608999089,-0.103,,,,0.6901800782
1747116508616701957,-0.084,,,,0.690950365
1747116508624404825,-0.077,,,,0.6917206518
1747116508632107693,-0.067,,,,0.6924909386
1747116508639810561,-0.048,,,,0.6932612254
1747116508647513429,-0.033,,,,0.6940315122
1747116508655216297,-0.016,,,,0.694801799
1747116508662919165,0.007,,,,0.6955720858
1747116508670622033,0.033,,,,0.6963423726
1747116508678324901,0.067,,,,0.6971126594
1747116508686027769,0.106,,,,0.6978829462
1747116508693730637,0.145,,,,0.698653233
1747116508701433505,0.183,,,,0.6994235198
1747116508709136373,0.219,,,,0.7001938066
1747116508716839241,0.246,,,,0.7009640934
1747116508724542109,0.256,,,,0.7017343802
1747116508732244977,0.244,,,,0.702504667
1747116508739947845,0.222,,,,0.7032749538
1747116508747650713,0.193,,,,0.7040452406
1747116508755353581,0.145,,,,0.7048155274
1747116508763056449,0.072,,,,0.7055858142
1747116508770759317,-0.007,,,,0.706356101
1747116508778462185,-0.089,,,,0.7071263878
1747116508786165053,-0.166,,,,0.7078966746
1747116508793867921,-0.227,,,,0.7086669614
1747116508801570789,-0.275,,,,0.7094372482
1747116508809273657,-0.304,,,,0.710207535
1747116508816976525,-0.316,,,,0.7109778218
1747116508824679393,-0.321,,,,0.7117481086
1747116508832382261,-0.326,,,,0.7125183954
1747116508840085129,-0.321,,,,0.7132886822
1747116508847787997,-0.304,,,,0.714058969
1747116508855490865,-0.29,,,,0.7148292558
1747116508863193733,-0.282,,,,0.7155995426
1747116508870896601,-0.273,,,,0.7163698294
1747116508878599469,-0.253,,,,0.7171401162
1747116508886302337,-0.236,,,,0.717910403
1747116508894005205,-0.227,,,,0.7186806898
1747116508901708073,-0.219,,,,0.7194509766
1747116508909410941,-0.212,,,,0.7202212634
1747116508917113809,-0.203,,,,0.7209915502
1747116508924816677,-0.195,,,,0.721761837
1747116508932519545,-0.193,,,,0.7225321238
1747116508940222413,-0.188,,,,0.7233024106
1747116508947925281,-0.183,,,,0.7240726974
1747116508955628149,-0.183,,,,0.7248429842
1747116508963331017,-0.183,,,,0.725613271
1747116508971033885,-0.181,,,,0.7263835578
1747116508978736753,-0.176,,,,0.7271538446
1747116508986439621,-0.181,,,,0.7279241314
1747116508994142489,-0.186,,,,0.7286944182
1747116509001845357,-0.181,,,,0.729464705
1747116509009548225,-0.174,,,,0.7302349918
1747116509017251142,-0.174,62.0,,,0.7310052835
1747116509024954010,-0.174,,,,0.7317755703
1747116509032656878,-0.169,,,,0.7325458571
1747116509040359746,-0.166,,,,0.7333161439
1747116509048062614,-0.166,,,,0.7340864307
1747116509055765482,-0.164,,,,0.7348567175
1747116509063468350,-0.161,,,,0.7356270043
1747116509071171218,-0.161,,,,0.7363972911
1747116509078874086,-0.159,,,,0.7371675779
1747116509086576954,-0.159,,,,0.7379378647
1747116509094279822,-0.157,,,,0.7387081515
1747116509101982690,-0.154,,,,0.7394784383
1747116509109685558,-0.154,,,,0.7402487251
1747116509117388426,-0.149,,,,0.7410190119
1747116509125091294,-0.142,,,,0.7417892987
1747116509132794162,-0.14,,,,0.7425595855
1747116509140497030,-0.145,,,,0.7433298723
1747116509148199898,-0.142,,,,0.7441001591
1747116509155902766,-0.135,,,,0.7448704459
1747116509163605634,-0.135,,,,0.7456407327
1747116509171308502,-0.142,,,,0.7464110195
1747116509179011370,-0.14,,,,0.7471813063
1747116509186714238,-0.135,,,,0.7479515931
1747116509194417106,-0.135,,,,0.7487218799
1747116509202119974,-0.132,,,,0.7494921667
1747116509209822842,-0.13,,,,0.7502624535
1747116509217525710,-0.12,,,,0.7510327403
1747116509225228578,-0.103,,,,0.7518030271
1747116509232931446,-0.094,,,,0.7525733139
1747116509240634314,-0.089,,,,0.7533436007
1747116509248337182,-0.091,,,,0.7541138875
1747116509256040050,-0.096,,,,0.7548841743
1747116509263742918,-0.099,,,,0.7556544611
1747116509271445786,-0.096,,,,0.7564247479
1747116509279148654,-0.108,,,,0.7571950347
1747116509286851522,-0.128,,,,0.7579653215
1747116509294554390,-0.13,,,,0.7587356083
1747116509302257258,-0.118,,,,0.7595058951
1747116509309960126,-0.116,,,,0.7602761819
1747116509317662994,-0.12,,,,0.7610464687
1747116509325365862,-0.123,,,,0.7618167555
1747116509333068730,-0.125,,,,0.7625870423
1747116509340771598,-0.128,,,,0.7633573291
1747116509348474466,-0.123,,,,0.7641276159
1747116509356177334,-0.118,,,,0.7648979027
1747116509363880202,-0.116,,,,0.7656681895
1747116509371583070,-0.106,,,,0.7664384763
1747116509379285938,-0.099,,,,0.7672087631
1747116509386988806,-0.101,,,,0.7679790499
1747116509394691674,-0.072,,,,0.7687493367
1747116509402394542,0.118,,,,0.7695196235
1747116509410097410,0.541,,,,0.7702899103
1747116509417800278,1.015,,,,0.7710601971
1747116509425503146,1.07,,,,0.7718304839
1747116509433206014,0.362,,,,0.7726007707
1747116509440908882,-0.459,,,,0.7733710575
1747116509448611750,-0.483,,,,0.7741413443
1747116509456314618,-0.183,,,,0.7749116311
1747116509464017486,-0.2,,,,0.7756819179
1747116509471720354,-0.239,,,,0.7764522047
1747116509479423222,-0.157,,,,0.7772224915
1747116509487126090,-0.14,,,,0.7779927783
1747116509494828958,-0.154,,,,0.7787630651
1747116509502531826,-0.125,,,,0.7795333519
1747116509510234694,-0.099,,,,0.7803036387
1747116509517937562,-0.096,,,,0.7810739255
1747116509525640430,-0.087,,,,0.7818442123
1747116509533343298,-0.067,,,,0.7826144991
1747116509541046166,-0.053,,,,0.7833847859
1747116509548749034,-0.045,,,,0.7841550727
1747116509556451902,-0.029,,,,0.7849253595
1747116509564154770,-0.007,,,,0.7856956463
1747116509571857638,0.009,,,,0.7864659331
1747116509579560551,0.026,,,,0.7872362244
1747116509587263419,0.06,,,,0.7880065112
1747116509594966287,0.099,,1001.0,,0.788776798
1747116509602669155,0.132,,,,0.7895470848
1747116509610372023,0.174,,,,0.7903173716
1747116509618074891,0.224,,,,0.7910876584
1747116509625777759,0.263,,,,0.7918579452
1747116509633480627,0.287,,,,0.792628232
1747116509641183495,0.297,,,,0.7933985188
1747116509648886363,0.287,,,,0.7941688056
1747116509656589231,0.263,,,,0.7949390924
1747116509664292099,0.224,,,,0.7957093792
1747116509671994967,0.164,,,,0.796479666
1747116509679697835,0.089,,,,0.7972499528
1747116509687400703,-0.002,,,,0.7980202396
1747116509695103571,-0.096,,,,0.7987905264
1747116509702806439,-0.174,,,,0.7995608132
1747116509710509307,-0.241,,,,0.8003311
1747116509718212175,-0.29,,,,0.8011013868
1747116509725915043,-0.316,,,,0.8018716736
1747116509733617911,-0.326,,,,0.8026419604
1747116509741320779,-0.331,,,,0.8034122472
1747116509749023647,-0.333,,,,0.804182534
1747116509756726515,-0.323,,,,0.8049528208
1747116509764429383,-0.309,,,,0.8057231076
1747116509772132251,-0.299,,,,0.8064933944
1747116509779835119,-0.285,,,,0.8072636812
1747116509787537987,-0.268,,,,0.808033968
1747116509795240855,-0.253,,,,0.8088042548
1747116509802943723,-0.244,,,,0.8095745416
1747116509810646591,-0.236,,,,0.8103448284
1747116509818349459,-0.219,,,,0.8111151152
1747116509826052327,-0.207,,,,0.811885402
1747116509833755195,-0.205,,,,0.8126556888
1747116509841458063,-0.2,,,,0.8134259756
1747116509849160931,-0.188,,,,0.8141962624
1747116509856863799,-0.181,,,,0.8149665492
1747116509864566667,-0.178,,,,0.815736836
1747116509872269535,-0.176,,,,0.8165071228
1747116509879972403,-0.174,,,,0.8172774096
1747116509887675271,-0.169,,,,0.8180476964
1747116509895378139,-0.169,,,,0.8188179832
1747116509903081007,-0.171,,,,0.81958827
1747116509910783875,-0.166,,,,0.8203585568
1747116509918486743,-0.164,,,,0.8211288436
1747116509926189611,-0.164,,,,0.8218991304
1747116509933892479,-0.161,,,,0.8226694172
1747116509941595347,-0.161,,,,0.823439704
1747116509949298215,-0.169,,,,0.8242099908
1747116509957001083,-0.164,,,,0.8249802776
1747116509964703951,-0.157,,,,0.8257505644
1747116509972406819,-0.154,,,,0.8265208512
1747116509980109687,-0.149,,,,0.827291138
1747116509987812555,-0.152,,,,0.8280614248
1747116509995515423,-0.154,,,,0.8288317116
1747116510003218291,-0.152,,,,0.8296019984
1747116510010921159,-0.145,,,,0.8303722852
1747116510018624027,-0.137,,,,0.831142572
1747116510026326895,-0.14,,,,0.8319128588
1747116510034029763,-0.137,,,,0.8326831456
1747116510041732631,-0.137,,,,0.8334534324
1747116510049435499,-0.132,,,,0.8342237192
1747116510057138367,-0.13,,,,0.834994006
1747116510064841235,-0.137,,,,0.8357642928
1747116510072544103,-0.14,,,,0.8365345796
1747116510080246971,-0.13,,,,0.8373048664
1747116510087949839,-0.128,,,,0.8380751532
1747116510095652707,-0.118,,,,0.83884544
1747116510103355575,-0.096,,,,0.8396157268
1747116510111058443,-0.082,,,,0.8403860136
1747116510118761311,-0.084,,,,0.8411563004
1747116510126464179,-0.084,,,,0.8419265872
1747116510134167047,-0.082,,,,0.842696874
1747116510141869960,-0.084,62.0,,,0.8434671653
1747116510149572828,-0.089,,,,0.8442374521
1747116510157275696,-0.096,,,,0.8450077389
1747116510164978564,-0.111,,,,0.8457780257
1747116510172681432,-0.118,,,,0.8465483125
1747116510180384300,-0.111,,,,0.8473185993
1747116510188087168,-0.108,,,,0.8480888861
1747116510195790036,-0.108,,,,0.8488591729
1747116510203492904,-0.103,,,,0.8496294597
1747116510211195772,-0.101,,,,0.8503997465
1747116510218898640,-0.101,,,,0.8511700333
1747116510226601508,-0.101,,,,0.8519403201
1747116510234304376,-0.096,,,,0.8527106069
1747116510242007244,-0.094,,,,0.8534808937
1747116510249710112,-0.091,,,,0.8542511805
1747116510257412980,-0.079,,,,0.8550214673
1747116510265115848,-0.065,,,,0.8557917541
1747116510272818716,0.029,,,,0.8565620409
1747116510280521584,0.321,,,,0.8573323277
1747116510288224452,0.785,,,,0.8581026145
1747116510295927320,1.114,,,,0.8588729013
1747116510303630188,0.807,,,,0.8596431881
1747116510311333056,-0.079,,,,0.8604134749
1747116510319035924,-0.56,,,,0.8611837617
1747116510326738792,-0.316,,,,0.8619540485
1747116510334441660,-0.152,,,,0.8627243353
1747116510342144528,-0.215,,,,0.8634946221
1747116510349847396,-0.161,,,,0.8642649089
1747116510357550264,-0.103,,,,0.8650351957
1747116510365253132,-0.12,,,,0.8658054825
1747116510372956000,-0.111,,,,0.8665757693
1747116510380658868,-0.079,,,,0.8673460561
1747116510388361736,-0.07,,,,0.8681163429
1747116510396064604,-0.062,,,,0.8688866297
1747116510403767472,-0.05,,,,0.8696569165
1747116510411470340,-0.038,,,,0.8704272033
1747116510419173208,-0.021,,,,0.8711974901
1747116510426876076,-0.004,,,,0.8719677769
1747116510434578944,0.007,,,,0.8727380637
1747116510442281812,0.026,,,,0.8735083505
1747116510449984680,0.05,,,,0.8742786373
1747116510457687548,0.067,,,,0.8750489241
1747116510465390416,0.096,,,,0.8758192109
1747116510473093284,0.142,,,,0.8765894977
1747116510480796152,0.186,,,,0.8773597845
1747116510488499020,0.219,,,,0.8781300713
1747116510496201888,0.258,,,,0.8789003581
1747116510503904756,0.297,,,,0.8796706449
1747116510511607624,0.316,,,,0.8804409317
1747116510519310492,0.311,,,,0.8812112185
1747116510527013360,0.292,,,,0.8819815053
1747116510534716228,0.253,,,,0.8827517921
1747116510542419096,0.198,,,,0.8835220789
1747116510550121964,0.128,,,,0.8842923657
1747116510557824832,0.045,,,,0.8850626525
1747116510565527700,-0.043,,,,0.8858329393
1747116510573230568,-0.132,,,,0.8866032261
1747116510580933436,-0.207,,,,0.8873735129
1747116510588636304,-0.261,,,,0.8881437997
1747116510596339172,-0.297,,1000.0,,0.8889140865
1747116510604042040,-0.321,,,,0.8896843733
1747116510611744908,-0.321,,,,0.8904546601
1747116510619447776,-0.321,,,,0.8912249469
1747116510627150644,-0.326,,,,0.8919952337
1747116510634853512,-0.314,,,,0.8927655205
1747116510642556380,-0.294,,,,0.8935358073
1747116510650259248,-0.282,,,,0.8943060941
1747116510657962116,-0.265,,,,0.8950763809
1747116510665664984,-0.248,,,,0.8958466677
1747116510673367852,-0.239,,,,0.8966169545
1747116510681070720,-0.229,,,,0.8973872413
1747116510688773588,-0.215,,,,0.8981575281
1747116510696476456,-0.203,,,,0.8989278149
1747116510704179369,-0.198,62.0,,,0.8996981062
1747116510711882237,-0.188,,,,0.900468393
1747116510719585105,-0.178,,,,0.9012386798
1747116510727287973,-0.181,,,,0.9020089666
1747116510734990841,-0.186,,,,0.9027792534
1747116510742693709,-0.178,,,,0.9035495402
1747116510750396577,-0.166,,,,0.904319827
1747116510758099445,-0.166,,,,0.9050901138
1747116510765802313,-0.169,,,,0.9058604006
1747116510773505181,-0.169,,,,0.9066306874
1747116510781208049,-0.171,,,,0.9074009742
1747116510788910917,-0.176,,,,0.908171261
1747116510796613785,-0.169,,,,0.9089415478
1747116510804316653,-0.166,,,,0.9097118346
1747116510812019521,-0.169,,,,0.9104821214
1747116510819722389,-0.174,,,,0.9112524082
1747116510827425257,-0.169,,,,0.912022695
1747116510835128125,-0.164,,,,0.9127929818
1747116510842830993,-0.164,,,,0.9135632686
1747116510850533861,-0.166,,,,0.9143335554
1747116510858236729,-0.166,,,,0.9151038422
1747116510865939597,-0.159,,,,0.915874129
1747116510873642465,-0.149,,,,0.9166444158
1747116510881345333,-0.149,,,,0.9174147026
1747116510889048201,-0.157,,,,0.9181849894
1747116510896751069,-0.154,,,,0.9189552762
1747116510904453937,-0.157,,,,0.919725563
1747116510912156805,-0.152,,,,0.9204958498
1747116510919859673,-0.147,,,,0.9212661366
1747116510927562541,-0.147,,,,0.9220364234
1747116510935265409,-0.14,,,,0.9228067102
1747116510942968277,-0.12,,,,0.923576997
1747116510950671145,-0.108,,,,0.9243472838
1747116510958374013,-0.108,,,,0.9251175706
1747116510966076881,-0.106,,,,0.9258878574
1747116510973779749,-0.094,,,,0.9266581442
1747116510981482617,-0.099,,,,0.927428431
1747116510989185485,-0.111,,,,0.9281987178
1747116510996888353,-0.108,,,,0.9289690046
1747116511004591221,-0.113,,,,0.9297392914
1747116511012294089,-0.132,,,,0.9305095782
1747116511019996957,-0.13,,,,0.931279865
1747116511027699825,-0.118,,,,0.9320501518
1747116511035402693,-0.123,,,,0.9328204386
1747116511043105561,-0.132,,,,0.9335907254
1747116511050808429,-0.125,,,,0.9343610122
1747116511058511297,-0.12,,,,0.935131299
1747116511066214165,-0.12,,,,0.9359015858
1747116511073917033,-0.113,,,,0.9366718726
1747116511081619901,-0.108,,,,0.9374421594
1747116511089322769,-0.103,,,,0.9382124462
1747116511097025637,-0.099,,,,0.938982733
1747116511104728505,-0.096,,,,0.9397530198
1747116511112431373,-0.082,,,,0.9405233066
1747116511120134241,0.014,,,,0.9412935934
1747116511127837109,0.302,,,,0.9420638802
1747116511135539977,0.761,,,,0.942834167
1747116511143242845,1.119,,,,0.9436044538
1747116511150945713,0.858,,,,0.9443747406
1747116511158648581,-0.029,,,,0.9451450274
1747116511166351449,-0.555,,,,0.9459153142
1747116511174054317,-0.323,,,,0.946685601
1747116511181757185,-0.142,,,,0.9474558878
1747116511189460053,-0.212,,,,0.9482261746
1747116511197162921,-0.174,,,,0.9489964614
1747116511204865789,-0.111,,,,0.9497667482
1747116511212568657,-0.135,,,,0.950537035
1747116511220271525,-0.123,,,,0.9513073218
1747116511227974393,-0.079,,,,0.9520776086
1747116511235677261,-0.079,,,,0.9528478954
1747116511243380129,-0.079,,,,0.9536181822
1747116511251082997,-0.053,,,,0.954388469
1747116511258785865,-0.036,,,,0.9551587558
1747116511266488778,-0.031,,,,0.9559290471
1747116511274191646,-0.012,,,,0.9566993339
1747116511281894514,0.007,,,,0.9574696207
1747116511289597382,0.026,,,,0.9582399075
1747116511297300250,0.053,,,,0.9590101943
1747116511305003118,0.082,,,,0.9597804811
1747116511312705986,0.111,,,,0.9605507679
1747116511320408854,0.147,,,,0.9613210547
1747116511328111722,0.19,,,,0.9620913415
1747116511335814590,0.239,,,,0.9628616283
1747116511343517458,0.282,,,,0.9636319151
1747116511351220326,0.316,,,,0.9644022019
1747116511358923194,0.328,,,,0.9651724887
1747116511366626062,0.321,,,,0.9659427755
1747116511374328930,0.299,,,,0.9667130623
1747116511382031798,0.263,,,,0.9674833491
1747116511389734666,0.217,,,,0.9682536359
1747116511397437534,0.145,,,,0.9690239227
1747116511405140402,0.05,,,,0.9697942095
1747116511412843270,-0.041,,,,0.9705644963
1747116511420546138,-0.12,,,,0.9713347831
1747116511428249006,-0.195,,,,0.9721050699
1747116511435951874,-0.244,,,,0.9728753567
1747116511443654742,-0.273,,,,0.9736456435
1747116511451357610,-0.29,,,,0.9744159303
1747116511459060478,-0.294,,,,0.9751862171
1747116511466763346,-0.292,,,,0.9759565039
1747116511474466214,-0.285,,,,0.9767267907
1747116511482169082,-0.273,,,,0.9774970775
1747116511489871950,-0.261,,,,0.9782673643
1747116511497574818,-0.248,,,,0.9790376511
1747116511505277686,-0.232,,,,0.9798079379
1747116511512980554,-0.219,,,,0.9805782247
1747116511520683422,-0.205,,,,0.9813485115
1747116511528386290,-0.193,,,,0.9821187983
1747116511536089158,-0.178,,944.0,,0.9828890851
1747116511543792026,-0.166,,,,0.9836593719
1747116511551494894,-0.157,,,,0.9844296587
1747116511559197762,-0.149,,,,0.9851999455
1747116511566900630,-0.142,,,,0.9859702323
1747116511574603498,-0.135,,,,0.9867405191
1747116511582306366,-0.128,,,,0.9875108059
1747116511590009234,-0.125,,,,0.9882810927
1747116511597712102,-0.123,,,,0.9890513795
1747116511605414970,-0.123,,,,0.9898216663
1747116511613117838,-0.123,,,,0.9905919531
1747116511620820706,-0.123,,,,0.9913622399
1747116511628523574,-0.123,,,,0.9921325267
1747116511636226442,-0.12,,,,0.9929028135
1747116511643929310,-0.123,,,,0.9936731003
1747116511651632178,-0.125,,,,0.9944433871
1747116511659335046,-0.123,,,,0.9952136739
1747116511667037914,-0.123,,,,0.9959839607
1747116511674740782,-0.12,,,,0.9967542475
1747116511682443650,-0.123,,,,0.9975245343
1747116511690146518,-0.123,,,,0.9982948211
1747116511697849386,-0.118,,,,0.9990651079
1747116511705552254,-0.12,,,,0.9998353947
1747116511713255122,-0.12,,,,1.0006056815
1747116511720957990,-0.116,,,,1.0013759683
1747116511728660858,-0.113,,,,1.0021462551
1747116511736363726,-0.113,,,,1.0029165419
1747116511744066594,-0.113,,,,1.0036868287
1747116511751769462,-0.111,,,,1.0044571155
1747116511759472330,-0.108,,,,1.0052274023
1747116511767175198,-0.108,,,,1.0059976891
1747116511774878066,-0.106,,,,1.0067679759
1747116511782580934,-0.103,,,,1.0075382627
1747116511790283802,-0.103,,,,1.0083085495
1747116511797986670,-0.101,,,,1.0090788363
1747116511805689538,-0.101,,,,1.0098491231
1747116511813392406,-0.103,,,,1.0106194099
1747116511821095274,-0.106,,,,1.0113896967
1747116511828798187,-0.101,61.0,,,1.012159988
1747116511836500985,-0.087,,,,1.0129302678
1747116511844203783,-0.072,,,,1.0137005476
1747116511851906581,-0.065,,,,1.0144708274
1747116511859609379,-0.06,,,,1.0152411072
1747116511867312177,-0.058,,,,1.016011387
1747116511875014975,-0.058,,,,1.0167816668
1747116511882717773,-0.055,,,,1.0175519466
1747116511890420571,-0.058,,,,1.0183222264
1747116511898123369,-0.07,,,,1.0190925062
1747116511905826167,-0.089,,,,1.019862786
1747116511913528965,-0.089,,,,1.0206330658
1747116511921231763,-0.084,,,,1.0214033456
1747116511928934561,-0.087,,,,1.0221736254
1747116511936637359,-0.087,,,,1.0229439052
1747116511944340157,-0.084,,,,1.023714185
1747116511952042955,-0.084,,,,1.0244844648
1747116511959745753,-0.084,,,,1.0252547446
1747116511967448551,-0.082,,,,1.0260250244
1747116511975151349,-0.079,,,,1.0267953042
1747116511982854147,-0.074,,,,1.027565584
1747116511990556945,-0.07,,,,1.0283358638
1747116511998259743,-0.067,,,,1.0291061436
1747116512005962541,-0.024,,,,1.0298764234
1747116512013665339,0.205,,,,1.0306467032
1747116512021368137,0.7000000000000001,,,,1.031416983
1747116512029070935,1.256,,,,1.0321872628
1747116512036773733,1.21,,,,1.0329575426
1747116512044476531,0.258,,,,1.0337278224
1747116512052179329,-0.514,,,,1.0344981022
1747116512059882127,-0.326,,,,1.035268382
1747116512067584925,-0.065,,,,1.0360386618
1747116512075287723,-0.2,,,,1.0368089416
1747116512082990521,-0.227,,,,1.0375792214
1747116512090693319,-0.12,,,,1.0383495012
1747116512098396117,-0.13,,,,1.039119781
1747116512106098915,-0.145,,,,1.0398900608
1747116512113801713,-0.101,,,,1.0406603406
1747116512121504511,-0.087,,,,1.0414306204
1747116512129207309,-0.087,,,,1.0422009002
1747116512136910107,-0.067,,,,1.04297118
1747116512144612905,-0.05,,,,1.0437414598
1747116512152315703,-0.045,,,,1.0445117396
1747116512160018501,-0.033,,,,1.0452820194
1747116512167721299,-0.016,,,,1.0460522992
1747116512175424097,0.0,,,,1.046822579
1747116512183126895,0.016,,,,1.0475928588
1747116512190829693,0.041,,,,1.0483631386
1747116512198532491,0.07,,,,1.0491334184
1747116512206235289,0.101,,,,1.0499036982
1747116512213938087,0.137,,,,1.050673978
1747116512221640885,0.176,,,,1.0514442578
1747116512229343683,0.217,,,,1.0522145376
1747116512237046481,0.251,,,,1.0529848174
1747116512244749279,0.27,,,,1.0537550972
1747116512252452077,0.27,,,,1.054525377
1747116512260154875,0.258,,,,1.0552956568
1747116512267857673,0.234,,,,1.0560659366
1747116512275560471,0.195,,,,1.0568362164
1747116512283263269,0.137,,,,1.0576064962
1747116512290966067,0.065,,,,1.058376776
1747116512298668865,-0.014,,,,1.0591470558
1747116512306371663,-0.091,,,,1.0599173356
1747116512314074461,-0.154,,,,1.0606876154
1747116512321777259,-0.203,,,,1.0614578952
1747116512329480057,-0.234,,,,1.062228175
1747116512337182855,-0.251,,,,1.0629984548
1747116512344885653,-0.261,,,,1.0637687346
1747116512352588451,-0.261,,,,1.0645390144
1747116512360291249,-0.251,,,,1.0653092942
1747116512367994047,-0.244,,,,1.066079574
1747116512375696845,-0.236,,,,1.0668498538
1747116512383399643,-0.227,,,,1.0676201336
1747116512391102509,-0.217,,,,1.0683904202
1747116512398805307,-0.205,,,,1.0691607
1747116512406508105,-0.198,,,,1.0699309798
1747116512414210903,-0.188,,,,1.0707012596
1747116512421913701,-0.178,,,,1.0714715394
1747116512429616499,-0.174,,,,1.0722418192
1747116512437319297,-0.164,,,,1.073012099
1747116512445022095,-0.154,,,,1.0737823788
1747116512452724893,-0.147,,,,1.0745526586
1747116512460427691,-0.142,,,,1.0753229384
1747116512468130489,-0.135,,,,1.0760932182
1747116512475833287,-0.128,,,,1.076863498
1747116512483536085,-0.125,,,,1.0776337778
1747116512491238883,-0.123,,,,1.0784040576
1747116512498941681,-0.12,,,,1.0791743374
1747116512506644479,-0.118,,,,1.0799446172
1747116512514347277,-0.118,,,,1.080714897
1747116512522050075,-0.118,,,,1.0814851768
1747116512529752873,-0.113,,992.0,,1.0822554566
1747116512537455671,-0.108,,,,1.0830257364
1747116512545158469,-0.111,,,,1.0837960162
1747116512552861267,-0.111,,,,1.084566296
1747116512560564065,-0.108,,,,1.0853365758
1747116512568266863,-0.106,,,,1.0861068556
1747116512575969661,-0.106,,,,1.0868771354
1747116512583672459,-0.103,,,,1.0876474152
1747116512591375257,-0.101,,,,1.088417695
1747116512599078055,-0.101,,,,1.0891879748
1747116512606780853,-0.101,,,,1.0899582546
1747116512614483651,-0.099,,,,1.0907285344
1747116512622186449,-0.096,,,,1.0914988142
1747116512629889247,-0.096,,,,1.092269094
1747116512637592045,-0.096,,,,1.0930393738
1747116512645294843,-0.096,,,,1.0938096536
1747116512652997641,-0.094,,,,1.0945799334
1747116512660700439,-0.091,,,,1.0953502132
1747116512668403237,-0.091,,,,1.096120493
1747116512676106035,-0.089,,,,1.0968907728
1747116512683808833,-0.089,,,,1.0976610526
1747116512691511631,-0.087,,,,1.0984313324
1747116512699214429,-0.084,,,,1.0992016122
1747116512706917227,-0.084,,,,1.099971892
1747116512714620025,-0.087,,,,1.1007421718
1747116512722322823,-0.091,,,,1.1015124516
1747116512730025621,-0.094,,,,1.1022827314
1747116512737728419,-0.084,,,,1.1030530112
1747116512745431217,-0.067,,,,1.103823291
1747116512753134015,-0.05,,,,1.1045935708
1747116512760836813,-0.043,,,,1.1053638506
1747116512768539611,-0.048,,,,1.1061341304
1747116512776242409,-0.05,,,,1.1069044102
1747116512783945207,-0.048,,,,1.10767469
1747116512791648005,-0.055,,,,1.1084449698
1747116512799350803,-0.074,,,,1.1092152496
1747116512807053601,-0.082,,,,1.1099855294
1747116512814756399,-0.074,,,,1.1107558092
1747116512822459197,-0.072,,,,1.111526089
1747116512830161995,-0.077,,,,1.1122963688
1747116512837864793,-0.077,,,,1.1130666486
1747116512845567591,-0.077,,,,1.1138369284
1747116512853270389,-0.074,,,,1.1146072082
1747116512860973187,-0.072,,,,1.115377488
1747116512868675985,-0.072,,,,1.1161477678
1747116512876378783,-0.067,,,,1.1169180476
1747116512884081581,-0.065,,,,1.1176883274
1747116512891784379,-0.065,,,,1.1184586072
1747116512899487177,-0.074,,,,1.119228887
1747116512907189975,-0.048,,,,1.1199991668
1747116512914892773,0.154,,,,1.1207694466
1747116512922595571,0.618,,,,1.1215397264
1747116512930298369,1.179,,,,1.1223100062
1747116512938001167,1.22,,,,1.123080286
1747116512945703965,0.338,,,,1.1238505658
1747116512953406831,-0.476,62.0,,,1.1246208524
1747116512961109629,-0.34,,,,1.1253911322
1747116512968812427,-0.055,,,,1.126161412
1747116512976515225,-0.176,,,,1.1269316918
1747116512984218023,-0.217,,,,1.1277019716
1747116512991920821,-0.113,,,,1.1284722514
1747116512999623619,-0.12,,,,1.1292425312
1747116513007326417,-0.14,,,,1.130012811
1747116513015029215,-0.096,,,,1.1307830908
1747116513022732013,-0.082,,,,1.1315533706
1747116513030434811,-0.084,,,,1.1323236504
1747116513038137609,-0.067,,,,1.1330939302
1747116513045840407,-0.05,,,,1.13386421
1747116513053543205,-0.043,,,,1.1346344898
1747116513061246003,-0.029,,,,1.1354047696
1747116513068948801,-0.012,,,,1.1361750494
1747116513076651599,0.002,,,,1.1369453292
1747116513084354397,0.019,,,,1.137715609
1747116513092057195,0.043,,,,1.1384858888
1747116513099759993,0.067,,,,1.1392561686
1747116513107462791,0.099,,,,1.1400264484
1747116513115165589,0.135,,,,1.1407967282
1747116513122868387,0.174,,,,1.141567008
1747116513130571185,0.212,,,,1.1423372878
1747116513138273983,0.248,,,,1.1431075676
1747116513145976781,0.27,,,,1.1438778474
1747116513153679579,0.277,,,,1.1446481272
1747116513161382377,0.265,,,,1.145418407
1747116513169085175,0.241,,,,1.1461886868
1747116513176787973,0.207,,,,1.1469589666
1747116513184490771,0.159,,,,1.1477292464
1747116513192193569,0.091,,,,1.1484995262
1747116513199896367,0.014,,,,1.149269806
1747116513207599165,-0.062,,,,1.1500400858
1747116513215301963,-0.123,,,,1.1508103656
1747116513223004761,-0.174,,,,1.1515806454
1747116513230707559,-0.21,,,,1.1523509252
1747116513238410357,-0.232,,,,1.153121205
1747116513246113155,-0.236,,,,1.1538914848
1747116513253815953,-0.239,,,,1.1546617646
1747116513261518751,-0.234,,,,1.1554320444
1747116513269221549,-0.224,,,,1.1562023242
1747116513276924347,-0.215,,,,1.156972604
1747116513284627145,-0.205,,,,1.1577428838
1747116513292329943,-0.195,,,,1.1585131636
1747116513300032741,-0.188,,,,1.1592834434
1747116513307735539,-0.181,,,,1.1600537232
1747116513315438337,-0.171,,,,1.160824003
1747116513323141135,-0.161,,,,1.1615942828
1747116513330843933,-0.154,,,,1.1623645626
1747116513338546731,-0.145,,,,1.1631348424
1747116513346249529,-0.14,,,,1.1639051222
1747116513353952327,-0.137,,,,1.164675402
1747116513361655125,-0.135,,,,1.1654456818
1747116513369357923,-0.13,,,,1.1662159616
1747116513377060721,-0.125,,,,1.1669862414
1747116513384763519,-0.125,,,,1.1677565212
1747116513392466317,-0.123,,,,1.168526801
1747116513400169115,-0.12,,,,1.1692970808
1747116513407871913,-0.12,,,,1.1700673606
1747116513415574711,-0.12,,,,1.1708376404
1747116513423277509,-0.123,,,,1.1716079202
1747116513430980307,-0.12,,,,1.1723782
1747116513438683105,-0.118,,,,1.1731484798
1747116513446385903,-0.118,,,,1.1739187596
1747116513454088701,-0.118,,,,1.1746890394
1747116513461791499,-0.116,,,,1.1754593192
1747116513469494297,-0.116,,,,1.176229599
1747116513477197095,-0.116,,,,1.1769998788
1747116513484899893,-0.113,,,,1.1777701586
1747116513492602691,-0.113,,,,1.1785404384
1747116513500305489,-0.113,,,,1.1793107182
1747116513508008287,-0.111,,,,1.180080998
1747116513515711153,-0.106,,,,1.1808512846
1747116513523413951,-0.106,,,,1.1816215644
1747116513531116749,-0.108,,,,1.1823918442
1747116513538819547,-0.103,,1006.0,,1.183162124
1747116513546522345,-0.103,,,,1.1839324038
1747116513554225143,-0.099,,,,1.1847026836
1747116513561927941,-0.096,,,,1.1854729634
1747116513569630739,-0.096,,,,1.1862432432
1747116513577333537,-0.091,,,,1.187013523
1747116513585036335,-0.089,,,,1.1877838028
1747116513592739133,-0.091,,,,1.1885540826
1747116513600441931,-0.089,,,,1.1893243624
1747116513608144729,-0.084,,,,1.1900946422
1747116513615847527,-0.082,,,,1.190864922
1747116513623550325,-0.084,,,,1.1916352018
1747116513631253123,-0.082,,,,1.1924054816
1747116513638955921,-0.079,,,,1.1931757614
1747116513646658719,-0.082,,,,1.1939460412
1747116513654361517,-0.079,,,,1.194716321
1747116513662064315,-0.079,,,,1.1954866008
1747116513669767113,-0.082,,,,1.1962568806
1747116513677469911,-0.084,,,,1.1970271604
1747116513685172709,-0.079,,,,1.1977974402
1747116513692875507,-0.067,,,,1.19856772
1747116513700578305,-0.053,,,,1.1993379998
1747116513708281103,-0.048,,,,1.2001082796
1747116513715983901,-0.043,,,,1.2008785594
1747116513723686699,-0.041,,,,1.2016488392
1747116513731389497,-0.045,,,,1.202419119
1747116513739092295,-0.05,,,,1.2031893988
1747116513746795093,-0.05,,,,1.2039596786
1747116513754497891,-0.06,,,,1.2047299584
1747116513762200689,-0.079,,,,1.2055002382
1747116513769903487,-0.087,,,,1.206270518
1747116513777606285,-0.079,,,,1.2070407978
1747116513785309083,-0.082,,,,1.2078110776
1747116513793011881,-0.084,,,,1.2085813574
1747116513800714679,-0.082,,,,1.2093516372
1747116513808417477,-0.079,,,,1.210121917
1747116513816120275,-0.082,,,,1.2108921968
1747116513823823073,-0.084,,,,1.2116624766
1747116513831525871,-0.079,,,,1.2124327564
1747116513839228669,-0.074,,,,1.2132030362
1747116513846931467,-0.072,,,,1.213973316
1747116513854634265,-0.072,,,,1.2147435958
1747116513862337063,-0.082,,,,1.2155138756
1747116513870039861,-0.072,,,,1.2162841554
1747116513877742659,0.072,,,,1.2170544352
1747116513885445457,0.459,,,,1.217824715
1747116513893148255,0.995,,,,1.2185949948
1747116513900851053,1.21,,,,1.2193652746
1747116513908553851,0.5650000000000001,,,,1.2201355544
1747116513916256649,-0.34,,,,1.2209058342
1747116513923959447,-0.437,,,,1.221676114
1747116513931662245,-0.116,,,,1.2224463938
1747116513939365043,-0.145,,,,1.2232166736
1747116513947067841,-0.236,,,,1.2239869534
1747116513954770639,-0.147,,,,1.2247572332
1747116513962473437,-0.12,,,,1.225527513
1747116513970176235,-0.152,,,,1.2262977928
1747116513977879033,-0.123,,,,1.2270680726
1747116513985581831,-0.096,,,,1.2278383524
1747116513993284629,-0.099,,,,1.2286086322
1747116514000987427,-0.089,,,,1.229378912
1747116514008690225,-0.072,,,,1.2301491918
1747116514016393023,-0.06,,,,1.2309194716
1747116514024095821,-0.05,,,,1.2316897514
1747116514031798619,-0.036,,,,1.2324600312
1747116514039501417,-0.021,,,,1.233230311
1747116514047204215,-0.002,,,,1.2340005908
1747116514054907013,0.019,,,,1.2347708706
1747116514062609811,0.045,,,,1.2355411504
1747116514070312609,0.07,,,,1.2363114302
1747116514078015475,0.101,62.0,,,1.2370817168
1747116514085718273,0.135,,,,1.2378519966
1747116514093421071,0.171,,,,1.2386222764
1747116514101123869,0.205,,,,1.2393925562
1747116514108826667,0.229,,,,1.240162836
1747116514116529465,0.239,,,,1.2409331158
1747116514124232263,0.234,,,,1.2417033956
1747116514131935061,0.215,,,,1.2424736754
1747116514139637859,0.188,,,,1.2432439552
1747116514147340657,0.152,,,,1.244014235
1747116514155043455,0.101,,,,1.2447845148
1747116514162746253,0.036,,,,1.2455547946
1747116514170449051,-0.031,,,,1.2463250744
1747116514178151849,-0.094,,,,1.2470953542
1747116514185854647,-0.147,,,,1.247865634
1747116514193557445,-0.186,,,,1.2486359138
1747116514201260243,-0.212,,,,1.2494061936
1747116514208963041,-0.227,,,,1.2501764734
1747116514216665839,-0.232,,,,1.2509467532
1747116514224368637,-0.232,,,,1.251717033
1747116514232071435,-0.227,,,,1.2524873128
1747116514239774233,-0.217,,,,1.2532575926
1747116514247477031,-0.207,,,,1.2540278724
1747116514255179829,-0.2,,,,1.2547981522
1747116514262882627,-0.19,,,,1.255568432
1747116514270585425,-0.176,,,,1.2563387118
1747116514278288223,-0.169,,,,1.2571089916
1747116514285991021,-0.161,,,,1.2578792714
1747116514293693819,-0.154,,,,1.2586495512
1747116514301396617,-0.147,,,,1.259419831
1747116514309099415,-0.142,,,,1.2601901108
1747116514316802213,-0.14,,,,1.2609603906
1747116514324505011,-0.137,,,,1.2617306704
1747116514332207809,-0.132,,,,1.2625009502
1747116514339910607,-0.13,,,,1.26327123
1747116514347613405,-0.132,,,,1.2640415098
1747116514355316203,-0.13,,,,1.2648117896
1747116514363019001,-0.13,,,,1.2655820694
1747116514370721799,-0.132,,,,1.2663523492
1747116514378424597,-0.132,,,,1.267122629
1747116514386127395,-0.132,,,,1.2678929088
1747116514393830193,-0.132,,,,1.2686631886
1747116514401532991,-0.132,,,,1.2694334684
1747116514409235789,-0.132,,,,1.2702037482
1747116514416938587,-0.132,,,,1.270974028
1747116514424641385,-0.132,,,,1.2717443078
1747116514432344183,-0.13,,,,1.2725145876
1747116514440046981,-0.13,,,,1.2732848674
1747116514447749779,-0.13,,,,1.2740551472
1747116514455452577,-0.128,,,,1.274825427
1747116514463155375,-0.125,,,,1.2755957068
1747116514470858173,-0.123,,,,1.2763659866
1747116514478560971,-0.123,,,,1.2771362664
1747116514486263769,-0.12,,,,1.2779065462
1747116514493966567,-0.12,,,,1.278676826
1747116514501669365,-0.12,,,,1.2794471058
1747116514509372163,-0.12,,,,1.2802173856
1747116514517074961,-0.118,,,,1.2809876654
1747116514524777759,-0.118,,,,1.2817579452
1747116514532480557,-0.116,,,,1.282528225
1747116514540183355,-0.113,,,,1.2832985048
1747116514547886153,-0.111,,1010.0,,1.2840687846
1747116514555588951,-0.111,,,,1.2848390644
1747116514563291749,-0.108,,,,1.2856093442
1747116514570994547,-0.103,,,,1.286379624
1747116514578697345,-0.101,,,,1.2871499038
1747116514586400143,-0.101,,,,1.2879201836
1747116514594102941,-0.101,,,,1.2886904634
1747116514601805739,-0.099,,,,1.2894607432
1747116514609508537,-0.099,,,,1.290231023
1747116514617211335,-0.099,,,,1.2910013028
1747116514624914133,-0.101,,,,1.2917715826
1747116514632616931,-0.103,,,,1.2925418624
1747116514640319797,-0.101,64.0,,,1.293312149
1747116514648022595,-0.091,,,,1.2940824288
1747116514655725393,-0.077,,,,1.2948527086
1747116514663428191,-0.067,,,,1.2956229884
1747116514671130989,-0.06,,,,1.2963932682
1747116514678833787,-0.058,,,,1.297163548
1747116514686536585,-0.06,,,,1.2979338278
1747116514694239383,-0.062,,,,1.2987041076
1747116514701942181,-0.065,,,,1.2994743874
1747116514709644979,-0.072,,,,1.3002446672
1747116514717347777,-0.089,,,,1.301014947
1747116514725050575,-0.101,,,,1.3017852268
1747116514732753373,-0.096,,,,1.3025555066
1747116514740456171,-0.096,,,,1.3033257864
1747116514748158969,-0.099,,,,1.3040960662
1747116514755861767,-0.099,,,,1.304866346
1747116514763564565,-0.099,,,,1.3056366258
1747116514771267363,-0.099,,,,1.3064069056
1747116514778970161,-0.096,,,,1.3071771854
1747116514786672959,-0.094,,,,1.3079474652
1747116514794375757,-0.089,,,,1.308717745
1747116514802078555,-0.087,,,,1.3094880248
1747116514809781353,-0.082,,,,1.3102583046
1747116514817484151,-0.084,,,,1.3110285844
1747116514825186949,-0.096,,,,1.3117988642
1747116514832889747,-0.029,,,,1.312569144
1747116514840592545,0.246,,,,1.3133394238
1747116514848295343,0.734,,,,1.3141097036
1747116514855998141,1.152,,,,1.3148799834
1747116514863700939,0.913,,,,1.3156502632
1747116514871403737,-0.002,,,,1.316420543
1747116514879106535,-0.512,,,,1.3171908228
1747116514886809333,-0.258,,,,1.3179611026
1747116514894512131,-0.106,,,,1.3187313824
1747116514902214929,-0.229,,,,1.3195016622
1747116514909917727,-0.205,,,,1.320271942
1747116514917620525,-0.132,,,,1.3210422218
1747116514925323323,-0.154,,,,1.3218125016
1747116514933026121,-0.152,,,,1.3225827814
1747116514940728919,-0.116,,,,1.3233530612
1747116514948431717,-0.111,,,,1.324123341
1747116514956134515,-0.108,,,,1.3248936208
1747116514963837313,-0.091,,,,1.3256639006
1747116514971540111,-0.079,,,,1.3264341804
1747116514979242909,-0.07,,,,1.3272044602
1747116514986945707,-0.055,,,,1.32797474
1747116514994648505,-0.041,,,,1.3287450198
1747116515002351303,-0.026,,,,1.3295152996
1747116515010054101,-0.002,,,,1.3302855794
1747116515017756899,0.019,,,,1.3310558592
1747116515025459697,0.043,,,,1.331826139
1747116515033162495,0.074,,,,1.3325964188
1747116515040865293,0.111,,,,1.3333666986
1747116515048568091,0.142,,,,1.3341369784
1747116515056270889,0.176,,,,1.3349072582
1747116515063973687,0.205,,,,1.335677538
1747116515071676485,0.222,,,,1.3364478178
1747116515079379283,0.222,,,,1.3372180976
1747116515087082081,0.207,,,,1.3379883774
1747116515094784879,0.183,,,,1.3387586572
1747116515102487677,0.149,,,,1.339528937
1747116515110190475,0.103,,,,1.3402992168
1747116515117893273,0.038,,,,1.3410694966
1747116515125596071,-0.036,,,,1.3418397764
1747116515133298869,-0.103,,,,1.3426100562
1747116515141001667,-0.159,,,,1.343380336
1747116515148704465,-0.207,,,,1.3441506158
1747116515156407263,-0.244,,,,1.3449208956
1747116515164110061,-0.265,,,,1.3456911754
1747116515171812859,-0.275,,,,1.3464614552
1747116515179515657,-0.277,,,,1.347231735
1747116515187218455,-0.275,,,,1.3480020148
1747116515194921253,-0.265,,,,1.3487722946
1747116515202624119,-0.253,,,,1.3495425812
1747116515210326987,-0.246,,,,1.350312868
1747116515218029855,-0.234,,,,1.3510831548
1747116515225732723,-0.219,,,,1.3518534416
1747116515233435591,-0.21,,,,1.3526237284
1747116515241138459,-0.203,,,,1.3533940152
1747116515248841327,-0.193,,,,1.354164302
1747116515256544195,-0.188,,,,1.3549345888
1747116515264247063,-0.188,,,,1.3557048756
1747116515271949931,-0.181,,,,1.3564751624
1747116515279652799,-0.176,,,,1.3572454492
1747116515287355667,-0.174,,,,1.358015736
1747116515295058535,-0.171,,,,1.3587860228
1747116515302761403,-0.169,,,,1.3595563096
1747116515310464271,-0.171,,,,1.3603265964
1747116515318167139,-0.176,,,,1.3610968832
1747116515325870007,-0.174,,,,1.36186717
1747116515333572875,-0.169,,,,1.3626374568
1747116515341275743,-0.171,,,,1.3634077436
1747116515348978611,-0.174,,,,1.3641780304
1747116515356681479,-0.171,,,,1.3649483172
1747116515364384347,-0.169,,,,1.365718604
1747116515372087215,-0.174,,,,1.3664888908
1747116515379790083,-0.171,,,,1.3672591776
1747116515387492951,-0.166,,,,1.3680294644
1747116515395195819,-0.166,,,,1.3687997512
1747116515402898687,-0.171,,,,1.369570038
1747116515410601555,-0.169,,,,1.3703403248
1747116515418304423,-0.164,,,,1.3711106116
1747116515426007291,-0.161,,,,1.3718808984
1747116515433710159,-0.161,,,,1.3726511852
1747116515441413027,-0.161,,,,1.373421472
1747116515449115895,-0.161,,,,1.3741917588
1747116515456818763,-0.157,,,,1.3749620456
1747116515464521631,-0.157,,,,1.3757323324
1747116515472224499,-0.157,,,,1.3765026192
1747116515479927367,-0.157,,,,1.377272906
1747116515487630235,-0.154,,,,1.3780431928
1747116515495333103,-0.152,,,,1.3788134796
1747116515503035971,-0.154,,,,1.3795837664
1747116515510738839,-0.152,,,,1.3803540532
1747116515518441707,-0.147,,,,1.38112434
1747116515526144575,-0.147,,977.0,,1.3818946268
1747116515533847443,-0.152,,,,1.3826649136
1747116515541550311,-0.154,,,,1.3834352004
1747116515549253179,-0.149,,,,1.3842054872
1747116515556956047,-0.137,,,,1.384975774
1747116515564658915,-0.125,,,,1.3857460608
1747116515572361783,-0.118,,,,1.3865163476
1747116515580064651,-0.111,,,,1.3872866344
1747116515587767519,-0.099,,,,1.3880569212
1747116515595470387,-0.094,,,,1.388827208
1747116515603173255,-0.106,,,,1.3895974948
1747116515610876123,-0.116,,,,1.3903677816
1747116515618578991,-0.113,,,,1.3911380684
1747116515626281859,-0.123,,,,1.3919083552
1747116515633984727,-0.142,,,,1.392678642
1747116515641687595,-0.14,,,,1.3934489288
1747116515649390463,-0.135,,,,1.3942192156
1747116515657093331,-0.142,,,,1.3949895024
1747116515664796199,-0.142,,,,1.3957597892
1747116515672499067,-0.137,,,,1.396530076
1747116515680201935,-0.142,,,,1.3973003628
1747116515687904803,-0.147,,,,1.3980706496
1747116515695607671,-0.142,,,,1.3988409364
1747116515703310539,-0.135,,,,1.3996112232
1747116515711013407,-0.13,,,,1.40038151
1747116515718716275,-0.128,,,,1.4011517968
1747116515726419143,-0.125,,,,1.4019220836
1747116515734122011,-0.123,,,,1.4026923704
1747116515741824879,-0.079,,,,1.4034626572
1747116515749527747,0.157,,,,1.404232944
1747116515757230615,0.621,,,,1.4050032308
1747116515764933532,1.056,64.0,,,1.4057735225
1747116515772636400,0.964,,,,1.4065438093
1747116515780339268,0.147,,,,1.4073140961
1747116515788042136,-0.543,,,,1.4080843829
1747116515795745004,-0.422,,,,1.4088546697
1747116515803447872,-0.176,,,,1.4096249565
1747116515811150740,-0.244,,,,1.4103952433
1747116515818853608,-0.241,,,,1.4111655301
1747116515826556476,-0.154,,,,1.4119358169
1747116515834259344,-0.164,,,,1.4127061037
1747116515841962212,-0.174,,,,1.4134763905
1747116515849665080,-0.137,,,,1.4142466773
1747116515857367948,-0.123,,,,1.4150169641
1747116515865070816,-0.123,,,,1.4157872509
1747116515872773684,-0.101,,,,1.4165575377
1747116515880476552,-0.084,,,,1.4173278245
1747116515888179420,-0.077,,,,1.4180981113
1747116515895882288,-0.062,,,,1.4188683981
1747116515903585156,-0.045,,,,1.4196386849
1747116515911288024,-0.026,,,,1.4204089717
1747116515918990892,-0.007,,,,1.4211792585
1747116515926693760,0.014,,,,1.4219495453
1747116515934396628,0.041,,,,1.4227198321
1747116515942099496,0.07,,,,1.4234901189
1747116515949802364,0.108,,,,1.4242604057
1747116515957505232,0.149,,,,1.4250306925
1747116515965208100,0.19,,,,1.4258009793
1747116515972910968,0.227,,,,1.4265712661
1747116515980613836,0.248,,,,1.4273415529
1747116515988316704,0.244,,,,1.4281118397
1747116515996019572,0.227,,,,1.4288821265
1747116516003722440,0.203,,,,1.4296524133
1747116516011425308,0.166,,,,1.4304227001
1747116516019128176,0.118,,,,1.4311929869
1747116516026831044,0.053,,,,1.4319632737
1747116516034533912,-0.038,,,,1.4327335605
1747116516042236780,-0.13,,,,1.4335038473
1747116516049939648,-0.195,,,,1.4342741341
1747116516057642516,-0.253,,,,1.4350444209
1747116516065345384,-0.294,,,,1.4358147077
1747116516073048252,-0.309,,,,1.4365849945
1747116516080751120,-0.321,,,,1.4373552813
1747116516088453988,-0.328,,,,1.4381255681
1747116516096156856,-0.323,,,,1.4388958549
1747116516103859724,-0.314,,,,1.4396661417
1747116516111562592,-0.297,,,,1.4404364285
1747116516119265460,-0.282,,,,1.4412067153
1747116516126968328,-0.277,,,,1.4419770021
1747116516134671196,-0.263,,,,1.4427472889
1747116516142374064,-0.241,,,,1.4435175757
1747116516150076932,-0.234,,,,1.4442878625
1747116516157779800,-0.227,,,,1.4450581493
1747116516165482668,-0.212,,,,1.4458284361
1747116516173185536,-0.203,,,,1.4465987229
1747116516180888404,-0.2,,,,1.4473690097
1747116516188591272,-0.198,,,,1.4481392965
1747116516196294140,-0.195,,,,1.4489095833
1747116516203997008,-0.193,,,,1.4496798701
1747116516211699876,-0.19,,,,1.4504501569
1747116516219402744,-0.193,,,,1.4512204437
1747116516227105612,-0.195,,,,1.4519907305
1747116516234808480,-0.19,,,,1.4527610173
1747116516242511348,-0.183,,,,1.4535313041
1747116516250214216,-0.186,,,,1.4543015909
1747116516257917084,-0.19,,,,1.4550718777
1747116516265619952,-0.183,,,,1.4558421645
1747116516273322820,-0.178,,,,1.4566124513
1747116516281025688,-0.188,,,,1.4573827381
1747116516288728556,-0.19,,,,1.4581530249
1747116516296431424,-0.178,,,,1.4589233117
1747116516304134292,-0.176,,,,1.4596935985
1747116516311837160,-0.178,,,,1.4604638853
1747116516319540028,-0.176,,,,1.4612341721
1747116516327242941,-0.176,,,,1.4620044634
1747116516334945809,-0.171,,,,1.4627747502
1747116516342648677,-0.169,,,,1.463545037
1747116516350351545,-0.166,,,,1.4643153238
1747116516358054413,-0.161,,,,1.4650856106
1747116516365757281,-0.161,,,,1.4658558974
1747116516373460149,-0.169,,,,1.4666261842
1747116516381163017,-0.171,,,,1.467396471
1747116516388865885,-0.161,,,,1.4681667578
1747116516396568753,-0.149,,,,1.4689370446
1747116516404271621,-0.14,,,,1.4697073314
1747116516411974489,-0.125,,,,1.4704776182
1747116516419677357,-0.111,,,,1.471247905
1747116516427380225,-0.108,,,,1.4720181918
1747116516435083093,-0.113,,,,1.4727884786
1747116516442785961,-0.12,,,,1.4735587654
1747116516450488829,-0.12,,,,1.4743290522
1747116516458191697,-0.116,,,,1.475099339
1747116516465894565,-0.132,,940.0,,1.4758696258
1747116516473597433,-0.154,,,,1.4766399126
1747116516481300301,-0.154,,,,1.4774101994
1747116516489003169,-0.145,,,,1.4781804862
1747116516496706037,-0.147,,,,1.478950773
1747116516504408905,-0.145,,,,1.4797210598
1747116516512111773,-0.142,,,,1.4804913466
1747116516519814641,-0.142,,,,1.4812616334
1747116516527517509,-0.137,,,,1.4820319202
1747116516535220377,-0.137,,,,1.482802207
1747116516542923245,-0.14,,,,1.4835724938
1747116516550626113,-0.128,,,,1.4843427806
1747116516558328981,-0.123,,,,1.4851130674
1747116516566031849,-0.128,,,,1.4858833542
1747116516573734717,-0.106,,,,1.486653641
1747116516581437585,0.004,,,,1.4874239278
1747116516589140453,0.299,,,,1.4881942146
1747116516596843321,0.775,,,,1.4889645014
1747116516604546189,1.106,,,,1.4897347882
1747116516612249057,0.756,,,,1.490505075
1747116516619951925,-0.154,,,,1.4912753618
1747116516627654793,-0.592,,,,1.4920456486
1747116516635357661,-0.331,,,,1.4928159354
1747116516643060529,-0.186,,,,1.4935862222
1747116516650763397,-0.246,,,,1.494356509
1747116516658466265,-0.181,,,,1.4951267958
1747116516666169133,-0.123,,,,1.4958970826
1747116516673872001,-0.145,,,,1.4966673694
1747116516681574869,-0.13,,,,1.4974376562
1747116516689277737,-0.096,,,,1.498207943
1747116516696980605,-0.096,,,,1.4989782298
1747116516704683473,-0.084,,,,1.4997485166
1747116516712386341,-0.06,,,,1.5005188034
1747116516720089209,-0.053,,,,1.5012890902
1747116516727792077,-0.048,,,,1.502059377
1747116516735494945,-0.021,,,,1.5028296638
1747116516743197813,0.0,,,,1.5035999506
1747116516750900681,0.014,,,,1.5043702374
1747116516758603549,0.033,,,,1.5051405242
1747116516766306417,0.062,,,,1.505910811
1747116516774009285,0.089,,,,1.5066810978
1747116516781712153,0.12,,,,1.5074513846
1747116516789415021,0.166,,,,1.5082216714
1747116516797117889,0.21,,,,1.5089919582
1747116516804820757,0.248,,,,1.509762245
1747116516812523625,0.282,,,,1.5105325318
1747116516820226493,0.292,,,,1.5113028186
1747116516827929361,0.275,,,,1.5120731054
1747116516835632229,0.248,,,,1.5128433922
1747116516843335097,0.215,,,,1.513613679
1747116516851037965,0.169,,,,1.5143839658
1747116516858740833,0.099,,,,1.5151542526
1747116516866443701,0.016,,,,1.5159245394
1747116516874146569,-0.067,,,,1.5166948262
1747116516881849437,-0.152,,,,1.517465113
1747116516889552350,-0.219,64.0,,,1.5182354043
1747116516897254939,-0.275,,,,1.5190056632
1747116516904957528,-0.309,,,,1.5197759221
1747116516912660117,-0.321,,,,1.520546181
1747116516920362706,-0.331,,,,1.5213164399
1747116516928065295,-0.331,,,,1.5220866988
1747116516935767884,-0.314,,,,1.5228569577
1747116516943470473,-0.294,,,,1.5236272166
1747116516951173062,-0.285,,,,1.5243974755
1747116516958875651,-0.277,,,,1.5251677344
1747116516966578240,-0.263,,,,1.5259379933
1747116516974280829,-0.248,,,,1.5267082522
1747116516981983418,-0.229,,,,1.5274785111
1747116516989686007,-0.215,,,,1.52824877
1747116516997388596,-0.212,,,,1.5290190289
1747116517005091185,-0.205,,,,1.5297892878
1747116517012793774,-0.19,,,,1.5305595467
1747116517020496363,-0.181,,,,1.5313298056
1747116517028198952,-0.178,,,,1.5321000645
1747116517035901541,-0.176,,,,1.5328703234
1747116517043604130,-0.171,,,,1.5336405823
1747116517051306719,-0.169,,,,1.5344108412
1747116517059009308,-0.171,,,,1.5351811001
1747116517066711897,-0.171,,,,1.535951359
1747116517074414486,-0.171,,,,1.5367216179
1747116517082117075,-0.174,,,,1.5374918768
1747116517089819664,-0.166,,,,1.5382621357
1747116517097522253,-0.161,,,,1.5390323946
1747116517105224842,-0.171,,,,1.5398026535
1747116517112927431,-0.166,,,,1.5405729124
1747116517120630020,-0.154,,,,1.5413431713
1747116517128332609,-0.159,,,,1.5421134302
1747116517136035198,-0.166,,,,1.5428836891
1747116517143737787,-0.159,,,,1.543653948
1747116517151440376,-0.152,,,,1.5444242069
1747116517159142965,-0.149,,,,1.5451944658
1747116517166845554,-0.145,,,,1.5459647247
1747116517174548143,-0.149,,,,1.5467349836
1747116517182250732,-0.157,,,,1.5475052425
1747116517189953321,-0.154,,,,1.5482755014
1747116517197655910,-0.145,,,,1.5490457603
1747116517205358499,-0.13,,,,1.5498160192
1747116517213061088,-0.113,,,,1.5505862781
1747116517220763677,-0.108,,,,1.551356537
1747116517228466266,-0.106,,,,1.5521267959
1747116517236168855,-0.096,,,,1.5528970548
1747116517243871444,-0.094,,,,1.5536673137
1747116517251574033,-0.108,,,,1.5544375726
1747116517259276622,-0.113,,,,1.5552078315
1747116517266979211,-0.103,,,,1.5559780904
1747116517274681800,-0.116,,,,1.5567483493
1747116517282384389,-0.137,,,,1.5575186082
1747116517290086978,-0.14,,,,1.5582888671
1747116517297789567,-0.132,,,,1.559059126
1747116517305492156,-0.137,,,,1.5598293849
1747116517313194745,-0.137,,,,1.5605996438
1747116517320897334,-0.13,,,,1.5613699027
1747116517328599923,-0.128,,,,1.5621401616
1747116517336302512,-0.125,,,,1.5629104205
1747116517344005101,-0.12,,,,1.5636806794
1747116517351707690,-0.113,,,,1.5644509383
1747116517359410279,-0.113,,,,1.5652211972
1747116517367112868,-0.108,,,,1.5659914561
1747116517374815457,-0.103,,,,1.566761715
1747116517382518046,-0.058,,,,1.5675319739
1747116517390220635,0.145,,,,1.5683022328
1747116517397923224,0.555,,,,1.5690724917
1747116517405625813,0.99,,,,1.5698427506
1747116517413328402,1.01,,,,1.5706130095
1747116517421030991,0.292,,,,1.5713832684
1747116517428733580,-0.48,,,,1.5721535273
1747116517436436169,-0.478,,974.0,,1.5729237862
1747116517444138758,-0.193,,,,1.5736940451
1747116517451841411,-0.195,,,,1.5744643104
1747116517459544209,-0.205,,,,1.5752345902
1747116517467247007,-0.125,,,,1.57600487
1747116517474949805,-0.123,,,,1.5767751498
1747116517482652603,-0.132,,,,1.5775454296
1747116517490355401,-0.096,,,,1.5783157094
1747116517498058199,-0.077,,,,1.5790859892
1747116517505760997,-0.074,,,,1.579856269
1747116517513463795,-0.055,,,,1.5806265488
1747116517521166593,-0.041,,,,1.5813968286
1747116517528869391,-0.029,,,,1.5821671084
1747116517536572189,-0.014,,,,1.5829373882
1747116517544274987,-0.002,,,,1.583707668
1747116517551977785,0.021,,,,1.5844779478
1747116517559680583,0.038,,,,1.5852482276
1747116517567383381,0.053,,,,1.5860185074
1747116517575086179,0.091,,,,1.5867887872
1747116517582788977,0.132,,,,1.587559067
1747116517590491775,0.166,,,,1.5883293468
1747116517598194573,0.207,,,,1.5890996266
1747116517605897371,0.256,,,,1.5898699064
1747116517613600169,0.294,,,,1.5906401862
1747116517621302967,0.311,,,,1.591410466
1747116517629005765,0.309,,,,1.5921807458
1747116517636708563,0.292,,,,1.5929510256
1747116517644411361,0.263,,,,1.5937213054
1747116517652114159,0.215,,,,1.5944915852
1747116517659816957,0.149,,,,1.595261865
1747116517667519755,0.072,,,,1.5960321448
1747116517675222553,-0.026,,,,1.5968024246
1747116517682925351,-0.12,,,,1.5975727044
1747116517690628149,-0.19,,,,1.5983429842
1747116517698330947,-0.241,,,,1.599113264
1747116517706033745,-0.287,,,,1.5998835438
1747116517713736543,-0.311,,,,1.6006538236
1747116517721439341,-0.314,,,,1.6014241034
1747116517729142139,-0.311,,,,1.6021943832
1747116517736844937,-0.311,,,,1.602964663
1747116517744547735,-0.304,,,,1.6037349428
1747116517752250533,-0.287,,,,1.6045052226
1747116517759953331,-0.273,,,,1.6052755024
1747116517767656129,-0.258,,,,1.6060457822
1747116517775358927,-0.236,,,,1.606816062
1747116517783061725,-0.227,,,,1.6075863418
1747116517790764523,-0.217,,,,1.6083566216
1747116517798467321,-0.205,,,,1.6091269014
1747116517806170119,-0.195,,,,1.6098971812
1747116517813872917,-0.186,,,,1.610667461
1747116517821575715,-0.176,,,,1.6114377408
1747116517829278513,-0.166,,,,1.6122080206
1747116517836981311,-0.161,,,,1.6129783004
1747116517844684109,-0.159,,,,1.6137485802
1747116517852386907,-0.157,,,,1.61451886
1747116517860089705,-0.157,,,,1.6152891398
1747116517867792503,-0.159,,,,1.6160594196
1747116517875495301,-0.159,,,,1.6168296994
1747116517883198099,-0.157,,,,1.6175999792
1747116517890900897,-0.157,,,,1.618370259
1747116517898603695,-0.159,,,,1.6191405388
1747116517906306493,-0.157,,,,1.6199108186
1747116517914009291,-0.157,,,,1.6206810984
1747116517921712089,-0.159,,,,1.6214513782
1747116517929414887,-0.159,,,,1.622221658
1747116517937117685,-0.157,,,,1.6229919378
1747116517944820483,-0.157,,,,1.6237622176
1747116517952523281,-0.159,,,,1.6245324974
1747116517960226079,-0.152,,,,1.6253027772
1747116517967928877,-0.123,,,,1.626073057
1747116517975631675,-0.103,,,,1.6268433368
1747116517983334473,-0.113,,,,1.6276136166
1747116517991037271,-0.118,,,,1.6283838964
1747116517998740069,-0.116,,,,1.6291541762
1747116518006442867,-0.128,,,,1.629924456
1747116518014145733,-0.14,64.0,,,1.6306947426
1747116518021848531,-0.142,,,,1.6314650224
1747116518029551329,-0.14,,,,1.6322353022
1747116518037254127,-0.137,,,,1.633005582
1747116518044956925,-0.132,,,,1.6337758618
1747116518052659723,-0.132,,,,1.6345461416
1747116518060362521,-0.128,,,,1.6353164214
1747116518068065319,-0.123,,,,1.6360867012
1747116518075768117,-0.125,,,,1.636856981
1747116518083470915,-0.123,,,,1.6376272608
1747116518091173713,-0.113,,,,1.6383975406
1747116518098876511,-0.106,,,,1.6391678204
1747116518106579309,-0.101,,,,1.6399381002
1747116518114282107,-0.084,,,,1.64070838
1747116518121984905,0.024,,,,1.6414786598
1747116518129687703,0.34,,,,1.6422489396
1747116518137390501,0.8260000000000001,,,,1.6430192194
1747116518145093299,1.15,,,,1.6437894992
1747116518152796097,0.773,,,,1.644559779
1747116518160498895,-0.142,,,,1.6453300588
1747116518168201693,-0.541,,,,1.6461003386
1747116518175904491,-0.265,,,,1.6468706184
1747116518183607289,-0.14,,,,1.6476408982
1747116518191310087,-0.219,,,,1.648411178
1747116518199012885,-0.166,,,,1.6491814578
1747116518206715683,-0.113,,,,1.6499517376
1747116518214418481,-0.132,,,,1.6507220174
1747116518222121279,-0.12,,,,1.6514922972
1747116518229824077,-0.087,,,,1.652262577
1747116518237526875,-0.074,,,,1.6530328568
1747116518245229673,-0.067,,,,1.6538031366
1747116518252932471,-0.05,,,,1.6545734164
1747116518260635269,-0.033,,,,1.6553436962
1747116518268338067,-0.021,,,,1.656113976
1747116518276040865,-0.007,,,,1.6568842558
1747116518283743663,0.014,,,,1.6576545356
1747116518291446461,0.036,,,,1.6584248154
1747116518299149259,0.058,,,,1.6591950952
1747116518306852057,0.087,,,,1.659965375
1747116518314554855,0.123,,,,1.6607356548
1747116518322257653,0.164,,,,1.6615059346
1747116518329960451,0.207,,,,1.6622762144
1747116518337663249,0.253,,,,1.6630464942
1747116518345366047,0.292,,,,1.663816774
1747116518353068845,0.319,,,,1.6645870538
1747116518360771643,0.328,,,,1.6653573336
1747116518368474441,0.319,,,,1.6661276134
1747116518376177239,0.292,,,,1.6668978932
1747116518383880037,0.244,,,,1.667668173
1747116518391582835,0.181,,,,1.6684384528
1747116518399285633,0.094,,,,1.6692087326
1747116518406988431,-0.007,,,,1.6699790124
1747116518414691229,-0.101,,,,1.6707492922
1747116518422394027,-0.176,,,,1.671519572
1747116518430096825,-0.234,,,,1.6722898518
1747116518437799623,-0.273,,,,1.6730601316
1747116518445502421,-0.29,,,,1.6738304114
1747116518453205219,-0.297,,1011.0,,1.6746006912
1747116518460908017,-0.294,,,,1.675370971
1747116518468610815,-0.287,,,,1.6761412508
1747116518476313613,-0.28,,,,1.6769115306
1747116518484016411,-0.27,,,,1.6776818104
1747116518491719209,-0.256,,,,1.6784520902
1747116518499422007,-0.244,,,,1.67922237
1747116518507124805,-0.234,,,,1.6799926498
1747116518514827603,-0.219,,,,1.6807629296
1747116518522530401,-0.203,,,,1.6815332094
1747116518530233199,-0.19,,,,1.6823034892
1747116518537935997,-0.178,,,,1.683073769
1747116518545638795,-0.164,,,,1.6838440488
1747116518553341593,-0.152,,,,1.6846143286
1747116518561044391,-0.147,,,,1.6853846084
1747116518568747189,-0.14,,,,1.6861548882
1747116518576450055,-0.128,64.0,,,1.6869251748
1747116518584152853,-0.123,,,,1.6876954546
1747116518591855651,-0.118,,,,1.6884657344
1747116518599558449,-0.118,,,,1.6892360142
1747116518607261247,-0.118,,,,1.690006294
1747116518614964045,-0.118,,,,1.6907765738
1747116518622666843,-0.118,,,,1.6915468536
1747116518630369641,-0.116,,,,1.6923171334
1747116518638072439,-0.116,,,,1.6930874132
1747116518645775237,-0.116,,,,1.693857693
1747116518653478035,-0.111,,,,1.6946279728
1747116518661180833,-0.111,,,,1.6953982526
1747116518668883631,-0.108,,,,1.6961685324
1747116518676586429,-0.108,,,,1.6969388122
1747116518684289227,-0.108,,,,1.697709092
1747116518691992025,-0.108,,,,1.6984793718
1747116518699694823,-0.106,,,,1.6992496516
1747116518707397621,-0.106,,,,1.7000199314
1747116518715100419,-0.106,,,,1.7007902112
1747116518722803217,-0.106,,,,1.701560491
1747116518730506015,-0.103,,,,1.7023307708
1747116518738208813,-0.099,,,,1.7031010506
1747116518745911611,-0.099,,,,1.7038713304
1747116518753614409,-0.103,,,,1.7046416102
1747116518761317207,-0.111,,,,1.70541189
1747116518769020005,-0.111,,,,1.7061821698
1747116518776722803,-0.096,,,,1.7069524496
1747116518784425601,-0.077,,,,1.7077227294
1747116518792128399,-0.065,,,,1.7084930092
1747116518799831197,-0.062,,,,1.709263289
1747116518807533995,-0.062,,,,1.7100335688
1747116518815236793,-0.065,,,,1.7108038486
1747116518822939591,-0.077,,,,1.7115741284
1747116518830642389,-0.091,,,,1.7123444082
1747116518838345187,-0.094,,,,1.713114688
1747116518846047985,-0.087,,,,1.7138849678
1747116518853750783,-0.087,,,,1.7146552476
1747116518861453581,-0.089,,,,1.7154255274
1747116518869156379,-0.089,,,,1.7161958072
1747116518876859177,-0.089,,,,1.716966087
1747116518884561975,-0.087,,,,1.7177363668
1747116518892264773,-0.084,,,,1.7185066466
1747116518899967571,-0.084,,,,1.7192769264
1747116518907670369,-0.077,,,,1.7200472062
1747116518915373167,-0.072,,,,1.720817486
1747116518923075965,-0.074,,,,1.7215877658
1747116518930778763,-0.038,,,,1.7223580456
1747116518938481561,0.169,,,,1.7231283254
1747116518946184359,0.647,,,,1.7238986052
1747116518953887157,1.213,,,,1.724668885
1747116518961589955,1.225,,,,1.7254391648
1747116518969292753,0.316,,,,1.7262094446
1747116518976995551,-0.497,,,,1.7269797244
1747116518984698349,-0.35,,,,1.7277500042
1747116518992401147,-0.065,,,,1.728520284
1747116519000103945,-0.19,,,,1.7292905638
1747116519007806743,-0.232,,,,1.7300608436
1747116519015509541,-0.125,,,,1.7308311234
1747116519023212339,-0.13,,,,1.7316014032
1747116519030915137,-0.152,,,,1.732371683
1747116519038617935,-0.111,,,,1.7331419628
1747116519046320733,-0.094,,,,1.7339122426
1747116519054023531,-0.096,,,,1.7346825224
1747116519061726329,-0.077,,,,1.7354528022
1747116519069429127,-0.06,,,,1.736223082
1747116519077131925,-0.055,,,,1.7369933618
1747116519084834723,-0.043,,,,1.7377636416
1747116519092537521,-0.026,,,,1.7385339214
1747116519100240319,-0.012,,,,1.7393042012
1747116519107943117,0.007,,,,1.740074481
1747116519115645915,0.033,,,,1.7408447608
1747116519123348713,0.06,,,,1.7416150406
1747116519131051511,0.094,,,,1.7423853204
1747116519138754381,0.137,,,,1.7431556074
1747116519146457179,0.178,,,,1.7439258872
1747116519154159977,0.219,,,,1.744696167
1747116519161862775,0.253,,,,1.7454664468
1747116519169565573,0.27,,,,1.7462367266
1747116519177268371,0.268,,,,1.7470070064
1747116519184971169,0.256,,,,1.7477772862
1747116519192673967,0.232,,,,1.748547566
1747116519200376765,0.188,,,,1.7493178458
1747116519208079563,0.125,,,,1.7500881256
1747116519215782361,0.048,,,,1.7508584054
1747116519223485159,-0.038,,,,1.7516286852
1747116519231187957,-0.116,,,,1.752398965
1747116519238890755,-0.174,,,,1.7531692448
1747116519246593553,-0.215,,,,1.7539395246
1747116519254296351,-0.244,,,,1.7547098044
1747116519261999149,-0.258,,,,1.7554800842
1747116519269701947,-0.261,,,,1.756250364
1747116519277404745,-0.258,,,,1.7570206438
1747116519285107543,-0.251,,,,1.7577909236
1747116519292810341,-0.241,,,,1.7585612034
1747116519300513139,-0.236,,,,1.7593314832
1747116519308215937,-0.227,,,,1.760101763
1747116519315918735,-0.219,,,,1.7608720428
1747116519323621533,-0.212,,,,1.7616423226
1747116519331324331,-0.203,,,,1.7624126024
1747116519339027129,-0.195,,,,1.7631828822
1747116519346729927,-0.186,,,,1.763953162
1747116519354432725,-0.176,,,,1.7647234418
1747116519362135523,-0.166,,,,1.7654937216
1747116519369838321,-0.154,,,,1.7662640014
1747116519377541119,-0.147,,,,1.7670342812
1747116519385243917,-0.142,,,,1.767804561
1747116519392946715,-0.137,,,,1.7685748408
1747116519400649513,-0.132,,,,1.7693451206
1747116519408352311,-0.128,,,,1.7701154004
1747116519416055109,-0.125,,,,1.7708856802
1747116519423757907,-0.125,,,,1.77165596
1747116519431460705,-0.123,,,,1.7724262398
1747116519439163503,-0.123,,,,1.7731965196
1747116519446866301,-0.123,,,,1.7739667994
1747116519454569099,-0.123,,,,1.7747370792
1747116519462271897,-0.123,,1015.0,,1.775507359
1747116519469974695,-0.12,,,,1.7762776388
1747116519477677493,-0.118,,,,1.7770479186
1747116519485380291,-0.116,,,,1.7778181984
1747116519493083089,-0.113,,,,1.7785884782
1747116519500785887,-0.113,,,,1.779358758
1747116519508488685,-0.111,,,,1.7801290378
1747116519516191483,-0.106,,,,1.7808993176
1747116519523894281,-0.106,,,,1.7816695974
1747116519531597079,-0.106,,,,1.7824398772
1747116519539299877,-0.103,,,,1.783210157
1747116519547002675,-0.103,,,,1.7839804368
1747116519554705473,-0.101,,,,1.7847507166
1747116519562408271,-0.099,,,,1.7855209964
1747116519570111069,-0.096,,,,1.7862912762
1747116519577813867,-0.094,,,,1.787061556
1747116519585516665,-0.094,,,,1.7878318358
1747116519593219463,-0.096,,,,1.7886021156
1747116519600922261,-0.094,,,,1.7893723954
1747116519608625059,-0.091,,,,1.7901426752
1747116519616327857,-0.091,,,,1.790912955
1747116519624030655,-0.089,,,,1.7916832348
1747116519631733453,-0.084,,,,1.7924535146
1747116519639436251,-0.082,,,,1.7932237944
1747116519647139049,-0.082,,,,1.7939940742
1747116519654841847,-0.082,,,,1.794764354
1747116519662544645,-0.079,,,,1.7955346338
1747116519670247443,-0.077,,,,1.7963049136
1747116519677950241,-0.077,,,,1.7970751934
1747116519685653039,-0.077,,,,1.7978454732
1747116519693355837,-0.074,,,,1.798615753
1747116519701058703,-0.072,64.0,,,1.7993860396
1747116519708761501,-0.072,,,,1.8001563194
1747116519716464299,-0.072,,,,1.8009265992
1747116519724167097,-0.072,,,,1.801696879
1747116519731869895,-0.074,,,,1.8024671588
1747116519739572693,-0.079,,,,1.8032374386
1747116519747275491,-0.074,,,,1.8040077184
1747116519754978289,-0.058,,,,1.8047779982
1747116519762681087,-0.043,,,,1.805548278
1747116519770383885,-0.041,,,,1.8063185578
1747116519778086683,-0.041,,,,1.8070888376
1747116519785789481,-0.038,,,,1.8078591174
1747116519793492279,-0.036,,,,1.8086293972
1747116519801195077,-0.041,,,,1.809399677
1747116519808897875,-0.041,,,,1.8101699568
1747116519816600673,-0.045,,,,1.8109402366
1747116519824303471,-0.062,,,,1.8117105164
1747116519832006269,-0.077,,,,1.8124807962
1747116519839709067,-0.077,,,,1.813251076
1747116519847411865,-0.072,,,,1.8140213558
1747116519855114663,-0.074,,,,1.8147916356
1747116519862817461,-0.077,,,,1.8155619154
1747116519870520259,-0.074,,,,1.8163321952
1747116519878223057,-0.077,,,,1.817102475
1747116519885925855,-0.077,,,,1.8178727548
1747116519893628653,-0.074,,,,1.8186430346
1747116519901331451,-0.072,,,,1.8194133144
1747116519909034249,-0.07,,,,1.8201835942
1747116519916737047,-0.067,,,,1.820953874
1747116519924439845,-0.074,,,,1.8217241538
1747116519932142643,-0.07,,,,1.8224944336
1747116519939845441,0.062,,,,1.8232647134
1747116519947548239,0.451,,,,1.8240349932
1747116519955251037,1.022,,,,1.824805273
1747116519962953835,1.302,,,,1.8255755528
1747116519970656633,0.674,,,,1.8263458326
1747116519978359431,-0.319,,,,1.8271161124
1747116519986062229,-0.464,,,,1.8278863922
1747116519993765027,-0.106,,,,1.828656672
1747116520001467825,-0.13,,,,1.8294269518
1747116520009170623,-0.244,,,,1.8301972316
1747116520016873421,-0.152,,,,1.8309675114
1747116520024576219,-0.116,,,,1.8317377912
1747116520032279017,-0.149,,,,1.832508071
1747116520039981815,-0.123,,,,1.8332783508
1747116520047684613,-0.094,,,,1.8340486306
1747116520055387411,-0.099,,,,1.8348189104
1747116520063090209,-0.089,,,,1.8355891902
1747116520070793007,-0.07,,,,1.83635947
1747116520078495805,-0.06,,,,1.8371297498
1747116520086198603,-0.048,,,,1.8379000296
1747116520093901401,-0.031,,,,1.8386703094
1747116520101604199,-0.019,,,,1.8394405892
1747116520109306997,0.0,,,,1.840210869
1747116520117009795,0.021,,,,1.8409811488
1747116520124712593,0.045,,,,1.8417514286
1747116520132415391,0.072,,,,1.8425217084
1747116520140118189,0.108,,,,1.8432919882
1747116520147820987,0.147,,,,1.844062268
1747116520155523785,0.183,,,,1.8448325478
1747116520163226583,0.219,,,,1.8456028276
1747116520170929381,0.246,,,,1.8463731074
1747116520178632179,0.256,,,,1.8471433872
1747116520186334977,0.251,,,,1.847913667
1747116520194037775,0.239,,,,1.8486839468
1747116520201740573,0.212,,,,1.8494542266
1747116520209443371,0.171,,,,1.8502245064
1747116520217146169,0.116,,,,1.8509947862
1747116520224848967,0.043,,,,1.851765066
1747116520232551765,-0.033,,,,1.8525353458
1747116520240254563,-0.101,,,,1.8533056256
1747116520247957361,-0.157,,,,1.8540759054
1747116520255660159,-0.198,,,,1.8548461852
1747116520263363025,-0.224,,,,1.8556164718
1747116520271065823,-0.236,,,,1.8563867516
1747116520278768621,-0.241,,,,1.8571570314
1747116520286471419,-0.241,,,,1.8579273112
1747116520294174217,-0.234,,,,1.858697591
1747116520301877015,-0.224,,,,1.8594678708
1747116520309579813,-0.217,,,,1.8602381506
1747116520317282611,-0.207,,,,1.8610084304
1747116520324985409,-0.2,,,,1.8617787102
1747116520332688207,-0.193,,,,1.86254899
1747116520340391005,-0.186,,,,1.8633192698
1747116520348093803,-0.178,,,,1.8640895496
1747116520355796601,-0.166,,,,1.8648598294
1747116520363499399,-0.159,,,,1.8656301092
1747116520371202197,-0.154,,,,1.866400389
1747116520378904995,-0.152,,,,1.8671706688
1747116520386607793,-0.145,,,,1.8679409486
1747116520394310591,-0.14,,,,1.8687112284
1747116520402013389,-0.135,,,,1.8694815082
1747116520409716187,-0.132,,,,1.870251788
1747116520417418985,-0.13,,,,1.8710220678
1747116520425121783,-0.125,,,,1.8717923476
1747116520432824581,-0.128,,,,1.8725626274
1747116520440527379,-0.128,,977.0,,1.8733329072
1747116520448230177,-0.123,,,,1.874103187
1747116520455932975,-0.12,,,,1.8748734668
1747116520463635773,-0.12,,,,1.8756437466
1747116520471338571,-0.123,,,,1.8764140264
1747116520479041369,-0.123,,,,1.8771843062
1747116520486744167,-0.12,,,,1.877954586
1747116520494446965,-0.118,,,,1.8787248658
1747116520502149763,-0.118,,,,1.8794951456
1747116520509852561,-0.118,,,,1.8802654254
1747116520517555359,-0.118,,,,1.8810357052
1747116520525258157,-0.116,,,,1.881805985
1747116520532960955,-0.113,,,,1.8825762648
1747116520540663753,-0.113,,,,1.8833465446
1747116520548366551,-0.111,,,,1.8841168244
1747116520556069349,-0.111,,,,1.8848871042
1747116520563772147,-0.113,,,,1.885657384
1747116520571474945,-0.111,,,,1.8864276638
1747116520579177743,-0.108,,,,1.8871979436
1747116520586880541,-0.108,,,,1.8879682234
1747116520594583339,-0.106,,,,1.8887385032
1747116520602286137,-0.106,,,,1.889508783
1747116520609988935,-0.103,,,,1.8902790628
1747116520617691733,-0.103,,,,1.8910493426
1747116520625394531,-0.101,,,,1.8918196224
1747116520633097329,-0.101,,,,1.8925899022
1747116520640800127,-0.101,,,,1.893360182
1747116520648502925,-0.096,,,,1.8941304618
1747116520656205723,-0.096,,,,1.8949007416
1747116520663908521,-0.094,,,,1.8956710214
1747116520671611319,-0.091,,,,1.8964413012
1747116520679314117,-0.091,,,,1.897211581
1747116520687016915,-0.091,,,,1.8979818608
1747116520694719713,-0.089,,,,1.8987521406
1747116520702422511,-0.087,,,,1.8995224204
1747116520710125309,-0.087,,,,1.9002927002
1747116520717828107,-0.084,,,,1.90106298
1747116520725530905,-0.084,,,,1.9018332598
1747116520733233703,-0.084,,,,1.9026035396
1747116520740936501,-0.084,,,,1.9033738194
1747116520748639299,-0.087,,,,1.9041440992
1747116520756342097,-0.089,,,,1.904914379
1747116520764044895,-0.091,,,,1.9056846588
1747116520771747693,-0.087,,,,1.9064549386
1747116520779450491,-0.072,,,,1.9072252184
1747116520787153289,-0.06,,,,1.9079954982
1747116520794856087,-0.058,,,,1.908765778
1747116520802558885,-0.053,,,,1.9095360578
1747116520810261683,-0.05,,,,1.9103063376
1747116520817964481,-0.053,,,,1.9110766174
1747116520825667347,-0.058,65.0,,,1.911846904
1747116520833370145,-0.06,,,,1.9126171838
1747116520841072943,-0.067,,,,1.9133874636
1747116520848775741,-0.084,,,,1.9141577434
1747116520856478539,-0.096,,,,1.9149280232
1747116520864181337,-0.089,,,,1.915698303
1747116520871884135,-0.084,,,,1.9164685828
1747116520879586933,-0.089,,,,1.9172388626
1747116520887289731,-0.091,,,,1.9180091424
1747116520894992529,-0.091,,,,1.9187794222
1747116520902695327,-0.091,,,,1.919549702
1747116520910398125,-0.091,,,,1.9203199818
1747116520918100923,-0.091,,,,1.9210902616
1747116520925803721,-0.089,,,,1.9218605414
1747116520933506519,-0.087,,,,1.9226308212
1747116520941209317,-0.082,,,,1.923401101
1747116520948912115,-0.079,,,,1.9241713808
1747116520956614913,-0.087,,,,1.9249416606
1747116520964317711,-0.055,,,,1.9257119404
1747116520972020509,0.159,,,,1.9264822202
1747116520979723307,0.618,,,,1.9272525
1747116520987426105,1.126,,,,1.9280227798
1747116520995128903,1.104,,,,1.9287930596
1747116521002831701,0.244,,,,1.9295633394
1747116521010534499,-0.488,,,,1.9303336192
1747116521018237297,-0.338,,,,1.931103899
1747116521025940095,-0.091,,,,1.9318741788
1747116521033642893,-0.205,,,,1.9326444586
1747116521041345691,-0.224,,,,1.9334147384
1747116521049048489,-0.132,,,,1.9341850182
1747116521056751287,-0.142,,,,1.934955298
1747116521064454085,-0.159,,,,1.9357255778
1747116521072156883,-0.118,,,,1.9364958576
1747116521079859681,-0.106,,,,1.9372661374
1747116521087562479,-0.108,,,,1.9380364172
1747116521095265277,-0.091,,,,1.938806697
1747116521102968075,-0.074,,,,1.9395769768
1747116521110670873,-0.067,,,,1.9403472566
1747116521118373671,-0.055,,,,1.9411175364
1747116521126076469,-0.041,,,,1.9418878162
1747116521133779267,-0.021,,,,1.942658096
1747116521141482065,0.0,,,,1.9434283758
1747116521149184863,0.024,,,,1.9441986556
1747116521156887661,0.048,,,,1.9449689354
1747116521164590459,0.079,,,,1.9457392152
1747116521172293257,0.113,,,,1.946509495
1747116521179996055,0.152,,,,1.9472797748
1747116521187698853,0.193,,,,1.9480500546
1747116521195401651,0.229,,,,1.9488203344
1747116521203104449,0.251,,,,1.9495906142
1747116521210807247,0.258,,,,1.950360894
1747116521218510045,0.248,,,,1.9511311738
1747116521226212843,0.229,,,,1.9519014536
1747116521233915641,0.195,,,,1.9526717334
1747116521241618439,0.147,,,,1.9534420132
1747116521249321237,0.079,,,,1.954212293
1747116521257024035,0.0,,,,1.9549825728
1747116521264726833,-0.074,,,,1.9557528526
1747116521272429631,-0.14,,,,1.9565231324
1747116521280132429,-0.19,,,,1.9572934122
1747116521287835227,-0.224,,,,1.958063692
1747116521295538025,-0.246,,,,1.9588339718
1747116521303240823,-0.256,,,,1.9596042516
1747116521310943621,-0.258,,,,1.9603745314
1747116521318646419,-0.256,,,,1.9611448112
1747116521326349217,-0.248,,,,1.961915091
1747116521334052015,-0.241,,,,1.9626853708
1747116521341754813,-0.232,,,,1.9634556506
1747116521349457611,-0.224,,,,1.9642259304
1747116521357160409,-0.215,,917.0,,1.9649962102
1747116521364863207,-0.205,,,,1.96576649
1747116521372566005,-0.193,,,,1.9665367698
1747116521380268803,-0.186,,,,1.9673070496
1747116521387971669,-0.176,,,,1.9680773362
1747116521395674467,-0.169,,,,1.968847616
1747116521403377265,-0.161,,,,1.9696178958
1747116521411080063,-0.154,,,,1.9703881756
1747116521418782861,-0.147,,,,1.9711584554
1747116521426485659,-0.142,,,,1.9719287352
1747116521434188457,-0.137,,,,1.972699015
1747116521441891255,-0.135,,,,1.9734692948
1747116521449594053,-0.13,,,,1.9742395746
1747116521457296851,-0.13,,,,1.9750098544
1747116521464999649,-0.128,,,,1.9757801342
1747116521472702447,-0.125,,,,1.976550414
1747116521480405245,-0.128,,,,1.9773206938
1747116521488108043,-0.13,,,,1.9780909736
1747116521495810841,-0.128,,,,1.9788612534
1747116521503513639,-0.13,,,,1.9796315332
1747116521511216437,-0.13,,,,1.980401813
1747116521518919235,-0.128,,,,1.9811720928
1747116521526622033,-0.128,,,,1.9819423726
1747116521534324831,-0.128,,,,1.9827126524
1747116521542027629,-0.125,,,,1.9834829322
1747116521549730427,-0.123,,,,1.984253212
1747116521557433225,-0.123,,,,1.9850234918
1747116521565136023,-0.12,,,,1.9857937716
1747116521572838821,-0.12,,,,1.9865640514
1747116521580541619,-0.12,,,,1.9873343312
1747116521588244417,-0.118,,,,1.988104611
1747116521595947215,-0.116,,,,1.9888748908
1747116521603650013,-0.116,,,,1.9896451706
1747116521611352811,-0.116,,,,1.9904154504
1747116521619055609,-0.116,,,,1.9911857302
1747116521626758407,-0.113,,,,1.99195601
1747116521634461205,-0.111,,,,1.9927262898
1747116521642164003,-0.111,,,,1.9934965696
1747116521649866801,-0.108,,,,1.9942668494
1747116521657569599,-0.103,,,,1.9950371292
1747116521665272397,-0.101,,,,1.995807409
1747116521672975195,-0.103,,,,1.9965776888
1747116521680677993,-0.103,,,,1.9973479686
1747116521688380791,-0.096,,,,1.9981182484
1747116521696083589,-0.094,,,,1.9988885282
1747116521703786387,-0.096,,,,1.999658808
1747116521711489185,-0.094,,,,2.0004290878
1747116521719191983,-0.096,,,,2.0011993676
1747116521726894781,-0.096,,,,2.0019696474
1747116521734597579,-0.091,,,,2.0027399272
1747116521742300377,-0.089,,,,2.003510207
1747116521750003175,-0.091,,,,2.0042804868
1747116521757705973,-0.091,,,,2.0050507666
1747116521765408771,-0.094,,,,2.0058210464
1747116521773111569,-0.099,,,,2.0065913262
1747116521780814367,-0.094,,,,2.007361606
1747116521788517165,-0.079,,,,2.0081318858
1747116521796219963,-0.067,,,,2.0089021656
1747116521803922761,-0.062,,,,2.0096724454
1747116521811625559,-0.058,,,,2.0104427252
1747116521819328357,-0.053,,,,2.011213005
1747116521827031155,-0.058,,,,2.0119832848
1747116521834733953,-0.062,,,,2.0127535646
1747116521842436751,-0.062,,,,2.0135238444
1747116521850139549,-0.07,,,,2.0142941242
1747116521857842347,-0.087,,,,2.015064404
1747116521865545145,-0.099,,,,2.0158346838
1747116521873247943,-0.094,,,,2.0166049636
1747116521880950741,-0.091,,,,2.0173752434
1747116521888653539,-0.094,,,,2.0181455232
1747116521896356337,-0.094,,,,2.018915803
1747116521904059135,-0.094,,,,2.0196860828
1747116521911761933,-0.096,,,,2.0204563626
1747116521919464731,-0.094,,,,2.0212266424
1747116521927167529,-0.091,,,,2.0219969222
1747116521934870327,-0.089,,,,2.022767202
1747116521942573125,-0.087,,,,2.0235374818
1747116521950275991,-0.084,67.0,,,2.0243077684
1747116521957978859,-0.082,,,,2.0250780552
1747116521965681727,-0.089,,,,2.025848342
1747116521973384595,-0.072,,,,2.0266186288
1747116521981087463,0.094,,,,2.0273889156
1747116521988790331,0.5,,,,2.0281592024
1747116521996493199,1.012,,,,2.0289294892
1747116522004196067,1.138,,,,2.029699776
1747116522011898935,0.437,,,,2.0304700628
1747116522019601803,-0.396,,,,2.0312403496
1747116522027304671,-0.406,,,,2.0320106364
1747116522035007539,-0.111,,,,2.0327809232
1747116522042710407,-0.166,,,,2.03355121
1747116522050413275,-0.227,,,,2.0343214968
1747116522058116143,-0.14,,,,2.0350917836
1747116522065819011,-0.125,,,,2.0358620704
1747116522073521879,-0.149,,,,2.0366323572
1747116522081224747,-0.12,,,,2.037402644
1747116522088927615,-0.096,,,,2.0381729308
1747116522096630483,-0.099,,,,2.0389432176
1747116522104333351,-0.089,,,,2.0397135044
1747116522112036219,-0.07,,,,2.0404837912
1747116522119739087,-0.06,,,,2.041254078
1747116522127441955,-0.048,,,,2.0420243648
1747116522135144823,-0.033,,,,2.0427946516
1747116522142847691,-0.019,,,,2.0435649384
1747116522150550559,0.0,,,,2.0443352252
1747116522158253427,0.016,,,,2.045105512
1747116522165956295,0.041,,,,2.0458757988
1747116522173659163,0.074,,,,2.0466460856
1747116522181362031,0.111,,,,2.0474163724
1747116522189064899,0.152,,,,2.0481866592
1747116522196767767,0.193,,,,2.048956946
1747116522204470635,0.229,,,,2.0497272328
1747116522212173503,0.253,,,,2.0504975196
1747116522219876371,0.263,,,,2.0512678064
1747116522227579239,0.258,,,,2.0520380932
1747116522235282107,0.244,,875.0,,2.05280838
1747116522242984975,0.217,,,,2.0535786668
1747116522250687843,0.169,,,,2.0543489536
1747116522258390711,0.101,,,,2.0551192404
1747116522266093579,0.019,,,,2.0558895272
1747116522273796447,-0.058,,,,2.056659814
1747116522281499315,-0.13,,,,2.0574301008
1747116522289202183,-0.19,,,,2.0582003876
1747116522296905051,-0.234,,,,2.0589706744
1747116522304607919,-0.258,,,,2.0597409612
1747116522312310787,-0.273,,,,2.060511248
1747116522320013655,-0.277,,,,2.0612815348
1747116522327716523,-0.277,,,,2.0620518216
1747116522335419391,-0.273,,,,2.0628221084
1747116522343122259,-0.268,,,,2.0635923952
1747116522350825127,-0.258,,,,2.064362682
1747116522358527995,-0.251,,,,2.0651329688
1747116522366230863,-0.241,,,,2.0659032556
1747116522373933731,-0.229,,,,2.0666735424
1747116522381636599,-0.222,,,,2.0674438292
1747116522389339467,-0.219,,,,2.068214116
1747116522397042335,-0.21,,,,2.0689844028
1747116522404745203,-0.195,,,,2.0697546896
1747116522412448071,-0.186,,,,2.0705249764
1747116522420150939,-0.183,,,,2.0712952632
1747116522427853807,-0.174,,,,2.07206555
1747116522435556675,-0.166,,,,2.0728358368
1747116522443259543,-0.166,,,,2.0736061236
1747116522450962411,-0.164,,,,2.0743764104
1747116522458665279,-0.159,,,,2.0751466972
1747116522466368147,-0.161,,,,2.075916984
1747116522474071015,-0.161,,,,2.0766872708
1747116522481773883,-0.161,,,,2.0774575576
1747116522489476751,-0.164,,,,2.0782278444
1747116522497179619,-0.166,,,,2.0789981312
1747116522504882487,-0.166,,,,2.079768418
1747116522512585404,-0.164,,,,2.0805387097
1747116522520288272,-0.166,,,,2.0813089965
1747116522527991140,-0.169,,,,2.0820792833
1747116522535694008,-0.166,,,,2.0828495701
1747116522543396876,-0.164,,,,2.0836198569
1747116522551099744,-0.164,,,,2.0843901437
1747116522558802612,-0.166,,,,2.0851604305
1747116522566505480,-0.164,,,,2.0859307173
1747116522574208348,-0.159,,,,2.0867010041
1747116522581911216,-0.154,,,,2.0874712909
1747116522589614084,-0.152,,,,2.0882415777
1747116522597316952,-0.157,,,,2.0890118645
1747116522605019820,-0.159,,,,2.0897821513
1747116522612722688,-0.154,,,,2.0905524381
1747116522620425556,-0.152,,,,2.0913227249
1747116522628128424,-0.152,,,,2.0920930117
1747116522635831292,-0.149,,,,2.0928632985
1747116522643534160,-0.147,,,,2.0936335853
1747116522651237028,-0.147,,,,2.0944038721
1747116522658939896,-0.147,,,,2.0951741589
1747116522666642764,-0.142,,,,2.0959444457
1747116522674345632,-0.142,,,,2.0967147325
1747116522682048500,-0.142,,,,2.0974850193
1747116522689751368,-0.137,,,,2.0982553061
1747116522697454236,-0.135,,,,2.0990255929
1747116522705157104,-0.135,,,,2.0997958797
1747116522712859972,-0.135,,,,2.1005661665
1747116522720562840,-0.135,,,,2.1013364533
1747116522728265708,-0.132,,,,2.1021067401
1747116522735968576,-0.135,,,,2.1028770269
1747116522743671444,-0.135,,,,2.1036473137
1747116522751374312,-0.132,,,,2.1044176005
1747116522759077180,-0.132,,,,2.1051878873
1747116522766780048,-0.137,,,,2.1059581741
1747116522774482916,-0.13,,,,2.1067284609
1747116522782185784,-0.113,,,,2.1074987477
1747116522789888652,-0.101,,,,2.1082690345
1747116522797591520,-0.099,,,,2.1090393213
1747116522805294388,-0.099,,,,2.1098096081
1747116522812997256,-0.096,,,,2.1105798949
1747116522820700124,-0.103,,,,2.1113501817
1747116522828402992,-0.106,,,,2.1121204685
1747116522836105860,-0.111,,,,2.1128907553
1747116522843808728,-0.12,,,,2.1136610421
1747116522851511596,-0.13,,,,2.1144313289
1747116522859214464,-0.135,,,,2.1152016157
1747116522866917332,-0.137,,,,2.1159719025
1747116522874620200,-0.14,,,,2.1167421893
1747116522882323068,-0.135,,,,2.1175124761
1747116522890025936,-0.13,,,,2.1182827629
1747116522897728804,-0.13,,,,2.1190530497
1747116522905431672,-0.13,,,,2.1198233365
1747116522913134540,-0.132,,,,2.1205936233
1747116522920837408,-0.132,,,,2.1213639101
1747116522928540276,-0.125,,,,2.1221341969
1747116522936243144,-0.12,,,,2.1229044837
1747116522943946012,-0.118,,,,2.1236747705
1747116522951648880,-0.12,,,,2.1244450573
1747116522959351748,-0.094,,,,2.1252153441
1747116522967054616,0.084,,,,2.1259856309
1747116522974757484,0.493,,,,2.1267559177
1747116522982460352,0.976,,,,2.1275262045
1747116522990163220,1.085,,,,2.1282964913
1747116522997866088,0.41,,,,2.1290667781
1747116523005568956,-0.444,,,,2.1298370649
1747116523013271824,-0.505,,,,2.1306073517
1747116523020974692,-0.188,,,,2.1313776385
1747116523028677560,-0.2,,,,2.1321479253
1747116523036380428,-0.253,,,,2.1329182121
1747116523044083296,-0.169,,,,2.1336884989
1747116523051786164,-0.149,,,,2.1344587857
1747116523059489032,-0.166,,,,2.1352290725
1747116523067191900,-0.14,,,,2.1359993593
1747116523074894813,-0.12,68.0,,,2.1367696506
1747116523082597681,-0.116,,848.0,,2.1375399374
1747116523090300549,-0.096,,,,2.1383102242
1747116523098003417,-0.082,,,,2.139080511
1747116523105706285,-0.074,,,,2.1398507978
1747116523113409153,-0.06,,,,2.1406210846
1747116523121112021,-0.041,,,,2.1413913714
1747116523128814889,-0.029,,,,2.1421616582
1747116523136517757,-0.014,,,,2.142931945
1747116523144220625,0.012,,,,2.1437022318
1747116523151923493,0.053,,,,2.1444725186
1747116523159626361,0.091,,,,2.1452428054
1747116523167329229,0.123,,,,2.1460130922
1747116523175032097,0.166,,,,2.146783379
1747116523182734965,0.212,,,,2.1475536658
1747116523190437833,0.248,,,,2.1483239526
1747116523198140701,0.277,,,,2.1490942394
1747116523205843569,0.297,,,,2.1498645262
1747116523213546437,0.299,,,,2.150634813
1747116523221249305,0.277,,,,2.1514050998
1747116523228952173,0.239,,,,2.1521753866
1747116523236655041,0.186,,,,2.1529456734
1747116523244357909,0.103,,,,2.1537159602
1747116523252060777,0.012,,,,2.154486247
1747116523259763645,-0.079,,,,2.1552565338
1747116523267466513,-0.166,,,,2.1560268206
1747116523275169381,-0.239,,,,2.1567971074
1747116523282872249,-0.282,,,,2.1575673942
1747116523290575117,-0.306,,,,2.158337681
1747116523298277985,-0.328,,,,2.1591079678
1747116523305980853,-0.335,,,,2.1598782546
1747116523313683721,-0.333,,,,2.1606485414
1747116523321386589,-0.331,,,,2.1614188282
1747116523329089457,-0.321,,,,2.162189115
1747116523336792325,-0.306,,,,2.1629594018
1747116523344495193,-0.297,,,,2.1637296886
1747116523352198061,-0.282,,,,2.1644999754
1747116523359900929,-0.263,,,,2.1652702622
1747116523367603797,-0.246,,,,2.166040549
