time,ecg,hr,rr,marker,norm_time
1748245840629941695,-0.24,,,,0.0
1748245840637644911,-0.1,,,,0.0007703216
1748245840645348127,-0.066,,,,0.0015406432
1748245840653051343,-0.184,,,,0.0023109648
1748245840660754559,-0.247,,,,0.0030812864
1748245840668457775,-0.206,,,,0.003851608
1748245840676160991,-0.139,,,,0.0046219296
1748245840683864207,-0.107,,,,0.0053922512
1748245840691567423,-0.152,,,,0.0061625728
1748245840699270639,-0.208,,,,0.0069328944
1748245840706973855,-0.218,,,,0.007703216
1748245840714677071,-0.196,,,,0.0084735376
1748245840722380287,-0.149,,,,0.0092438592
1748245840730083503,-0.144,,,,0.0100141808
1748245840737786719,-0.188,,,,0.0107845024
1748245840745489935,-0.191,,,,0.011554824
1748245840753193151,-0.181,,,,0.0123251456
1748245840760896367,-0.196,,,,0.0130954672
1748245840768599583,-0.193,,,,0.0138657888
1748245840776302799,-0.211,,,,0.0146361104
1748245840784006015,-0.238,,,,0.015406432
1748245840791709231,-0.233,,,,0.0161767536
1748245840799412447,-0.225,,,,0.0169470752
1748245840807115663,-0.179,,,,0.0177173968
1748245840814818879,-0.132,,,,0.0184877184
1748245840822522095,-0.169,,,,0.01925804
1748245840830225311,-0.242,,,,0.0200283616
1748245840837928527,-0.274,,,,0.0207986832
1748245840845631743,-0.223,,,,0.0215690048
1748245840853334959,-0.171,,,,0.0223393264
1748245840861038175,-0.201,,,,0.023109648
1748245840868741391,-0.203,,,,0.0238799696
1748245840876444607,-0.144,,,,0.0246502912
1748245840884147823,-0.117,,,,0.0254206128
1748245840891851039,-0.181,,,,0.0261909344
1748245840899554255,-0.25,,,,0.026961256
1748245840907257471,-0.218,,,,0.0277315776
1748245840914960687,-0.196,,,,0.0285018992
1748245840922663903,-0.247,,,,0.0292722208
1748245840930367119,-0.24,,,,0.0300425424
1748245840938070335,-0.218,,,,0.030812864
1748245840945773551,-0.24,,,,0.0315831856
1748245840953476767,-0.166,,,,0.0323535072
1748245840961179983,0.046,,,,0.0331238288
1748245840968883199,0.245,,,,0.0338941504
1748245840976586415,0.223,,,,0.034664472
1748245840984289631,-0.201,,,,0.0354347936
1748245840991992847,-0.753,,,,0.0362051152
1748245840999696063,-0.721,,,,0.0369754368
1748245841007399279,-0.274,,,,0.0377457584
1748245841015102495,-0.203,,,,0.03851608
1748245841022805711,-0.328,,,,0.0392864016
1748245841030508927,-0.25,,,,0.0400567232
1748245841038212143,-0.309,,,,0.0408270448
1748245841045915359,-0.426,,,,0.0415973664
1748245841053618575,-0.279,,,,0.042367688
1748245841061321791,-0.171,,,,0.0431380096
1748245841069025007,-0.242,,,,0.0439083312
1748245841076728223,-0.274,,,,0.0446786528
1748245841084431439,-0.289,,,,0.0454489744
1748245841092134655,-0.306,,,,0.046219296
1748245841099837871,-0.274,,,,0.0469896176
1748245841107541087,-0.262,,,,0.0477599392
1748245841115244303,-0.26,,,,0.0485302608
1748245841122947519,-0.213,,,,0.0493005824
1748245841130650735,-0.198,,,,0.050070904
1748245841138353951,-0.208,,,,0.0508412256
1748245841146057167,-0.196,,,,0.0516115472
1748245841153760383,-0.198,,,,0.0523818688
1748245841161463599,-0.203,,,,0.0531521904
1748245841169166815,-0.198,,,,0.053922512
1748245841176870031,-0.176,,,,0.0546928336
1748245841184573247,-0.169,,,,0.0554631552
1748245841192276535,-0.203,88.0,634.0,,0.056233484
1748245841199979542,-0.154,,643.0,,0.0570037847
1748245841207682549,-0.08,,,,0.0577740854
1748245841215385556,-0.154,,,,0.0585443861
1748245841223088563,-0.223,,,,0.0593146868
1748245841230791570,-0.193,,,,0.0600849875
1748245841238494577,-0.203,,,,0.0608552882
1748245841246197584,-0.296,,,,0.0616255889
1748245841253900591,-0.345,,,,0.0623958896
1748245841261603598,-0.277,,,,0.0631661903
1748245841269306605,-0.208,,,,0.063936491
1748245841277009612,-0.252,,,,0.0647067917
1748245841284712619,-0.326,,,,0.0654770924
1748245841292415626,-0.299,,,,0.0662473931
1748245841300118633,-0.247,,,,0.0670176938
1748245841307821640,-0.289,,,,0.0677879945
1748245841315524647,-0.341,,,,0.0685582952
1748245841323227654,-0.299,,,,0.0693285959
1748245841330930661,-0.228,,,,0.0700988966
1748245841338633668,-0.223,,,,0.0708691973
1748245841346336675,-0.26,,,,0.071639498
1748245841354039682,-0.252,,,,0.0724097987
1748245841361742689,-0.26,,,,0.0731800994
1748245841369445696,-0.328,,,,0.0739504001
1748245841377148703,-0.289,,,,0.0747207008
1748245841384851710,-0.184,,,,0.0754910015
1748245841392554717,-0.233,,,,0.0762613022
1748245841400257724,-0.353,,,,0.0770316029
1748245841407960731,-0.36,,,,0.0778019036
1748245841415663738,-0.262,,,,0.0785722043
1748245841423366745,-0.201,,,,0.079342505
1748245841431069752,-0.206,,,,0.0801128057
1748245841438772759,-0.198,,,,0.0808831064
1748245841446475766,-0.262,,,,0.0816534071
1748245841454178773,-0.365,,,,0.0824237078
1748245841461881780,-0.306,,,,0.0831940085
1748245841469584787,-0.228,,,,0.0839643092
1748245841477287794,-0.264,,,,0.0847346099
1748245841484990801,-0.22,,,,0.0855049106
1748245841492693808,-0.139,,,,0.0862752113
1748245841500396815,-0.218,,,,0.087045512
1748245841508099822,-0.282,,,,0.0878158127
1748245841515802829,-0.24,,,,0.0885861134
1748245841523505836,-0.264,,,,0.0893564141
1748245841531208843,-0.306,,,,0.0901267148
1748245841538911850,-0.282,,,,0.0908970155
1748245841546614857,-0.304,,,,0.0916673162
1748245841554317864,-0.294,,,,0.0924376169
1748245841562020871,-0.206,,,,0.0932079176
1748245841569723878,-0.242,,,,0.0939782183
1748245841577426885,-0.267,,,,0.094748519
1748245841585129892,-0.068,,,,0.0955188197
1748245841592832899,0.179,,,,0.0962891204
1748245841600535906,0.166,,,,0.0970594211
1748245841608238913,-0.262,,,,0.0978297218
1748245841615941920,-0.6940000000000001,,,,0.0986000225
1748245841623644927,-0.588,,,,0.0993703232
1748245841631347934,-0.311,,,,0.1001406239
1748245841639050941,-0.314,,,,0.1009109246
1748245841646753948,-0.321,,,,0.1016812253
1748245841654456955,-0.228,,,,0.102451526
1748245841662159962,-0.225,,,,0.1032218267
1748245841669862969,-0.284,,,,0.1039921274
1748245841677565976,-0.269,,,,0.1047624281
1748245841685268983,-0.196,,,,0.1055327288
1748245841692971990,-0.213,,,,0.1063030295
1748245841700674997,-0.274,,,,0.1070733302
1748245841708378004,-0.223,,,,0.1078436309
1748245841716081011,-0.193,,,,0.1086139316
1748245841723784018,-0.255,,,,0.1093842323
1748245841731487025,-0.225,,,,0.110154533
1748245841739190032,-0.154,,,,0.1109248337
1748245841746893039,-0.213,,,,0.1116951344
1748245841754596118,-0.23,,,,0.1124654423
1748245841762299125,-0.073,,,,0.113235743
1748245841770002132,-0.004,,,,0.1140060437
1748245841777705139,-0.125,,,,0.1147763444
1748245841785408146,-0.186,,,,0.1155466451
1748245841793111153,-0.1,,,,0.1163169458
1748245841800814160,-0.049,,,,0.1170872465
1748245841808517167,-0.088,,,,0.1178575472
1748245841816220174,-0.12,,,,0.1186278479
1748245841823923181,-0.132,,,,0.1193981486
1748245841831626188,-0.088,,,,0.1201684493
1748245841839329195,-0.036,,,,0.12093875
1748245841847032202,-0.1,,,,0.1217090507
1748245841854735209,-0.134,,,,0.1224793514
1748245841862438216,-0.088,,,,0.1232496521
1748245841870141223,-0.139,,,,0.1240199528
1748245841877844230,-0.215,,,,0.1247902535
1748245841885547237,-0.218,,,,0.1255605542
1748245841893250244,-0.25,,,,0.1263308549
1748245841900953251,-0.296,,,,0.1271011556
1748245841908656258,-0.191,,,,0.1278714563
1748245841916359265,-0.056,,,,0.128641757
1748245841924062272,-0.139,,,,0.1294120577
1748245841931765279,-0.25,,,,0.1301823584
1748245841939468286,-0.184,,,,0.1309526591
1748245841947171293,-0.157,,,,0.1317229598
1748245841954874300,-0.22,,,,0.1324932605
1748245841962577307,-0.223,,,,0.1332635612
1748245841970280314,-0.211,,,,0.1340338619
1748245841977983321,-0.203,,,,0.1348041626
1748245841985686328,-0.149,,,,0.1355744633
1748245841993389335,-0.144,,,,0.136344764
1748245842001092342,-0.206,,,,0.1371150647
1748245842008795349,-0.208,,,,0.1378853654
1748245842016498356,-0.179,,,,0.1386556661
1748245842024201363,-0.191,,,,0.1394259668
1748245842031904370,-0.206,,,,0.1401962675
1748245842039607377,-0.206,,,,0.1409665682
1748245842047310384,-0.211,,,,0.1417368689
1748245842055013391,-0.206,,,,0.1425071696
1748245842062716398,-0.213,,,,0.1432774703
1748245842070419405,-0.233,,,,0.144047771
1748245842078122412,-0.225,,,,0.1448180717
1748245842085825419,-0.228,,,,0.1455883724
1748245842093528426,-0.218,,,,0.1463586731
1748245842101231433,-0.188,,,,0.1471289738
1748245842108934440,-0.184,,,,0.1478992745
1748245842116637447,-0.215,,,,0.1486695752
1748245842124340454,-0.218,,,,0.1494398759
1748245842132043461,-0.171,,,,0.1502101766
1748245842139746468,-0.157,,,,0.1509804773
1748245842147449475,-0.161,,,,0.151750778
1748245842155152482,-0.186,,,,0.1525210787
1748245842162855489,-0.247,,,,0.1532913794
1748245842170558496,-0.245,,,,0.1540616801
1748245842178261503,-0.206,,,,0.1548319808
1748245842185964510,-0.245,,,,0.1556022815
1748245842193667517,-0.287,,,,0.1563725822
1748245842201370524,-0.245,,,,0.1571428829
1748245842209073531,-0.25,,,,0.1579131836
1748245842216776538,-0.289,,,,0.1586834843
1748245842224479545,-0.122,,,,0.159453785
1748245842232182552,0.179,,,,0.1602240857
1748245842239885559,0.316,,,,0.1609943864
1748245842247588566,0.029,,,,0.1617646871
1748245842255291573,-0.554,,,,0.1625349878
1748245842262994580,-0.716,,,,0.1633052885
1748245842270697587,-0.407,,,,0.1640755892
1748245842278400594,-0.274,,,,0.1648458899
1748245842286103601,-0.291,,,,0.1656161906
1748245842293806608,-0.208,,,,0.1663864913
1748245842301509615,-0.171,,,,0.167156792
1748245842309212622,-0.211,,,,0.1679270927
1748245842316915697,-0.198,89.0,642.0,,0.1686974002
1748245842324618844,-0.149,,,,0.1694677149
1748245842332321991,-0.171,,,,0.1702380296
1748245842340025138,-0.262,,,,0.1710083443
1748245842347728285,-0.269,,,,0.171778659
1748245842355431432,-0.211,,,,0.1725489737
1748245842363134579,-0.171,,,,0.1733192884
1748245842370837726,-0.122,,,,0.1740896031
1748245842378540873,-0.142,,,,0.1748599178
1748245842386244020,-0.225,,,,0.1756302325
1748245842393947167,-0.208,,,,0.1764005472
1748245842401650314,-0.166,,,,0.1771708619
1748245842409353461,-0.164,,,,0.1779411766
1748245842417056608,-0.117,,,,0.1787114913
1748245842424759755,-0.08,,,,0.179481806
1748245842432462902,-0.093,,,,0.1802521207
1748245842440166049,-0.083,,,,0.1810224354
1748245842447869196,-0.039,,,,0.1817927501
1748245842455572343,-0.004,,,,0.1825630648
1748245842463275490,-0.058,,,,0.1833333795
1748245842470978637,-0.127,,,,0.1841036942
1748245842478681784,-0.053,,,,0.1848740089
1748245842486384931,-0.029,,,,0.1856443236
1748245842494088078,-0.144,,,,0.1864146383
1748245842501791225,-0.157,,,,0.187184953
1748245842509494372,-0.127,,,,0.1879552677
1748245842517197519,-0.206,,,,0.1887255824
1748245842524900666,-0.228,,,,0.1894958971
1748245842532603813,-0.188,,,,0.1902662118
1748245842540306960,-0.211,,,,0.1910365265
1748245842548010107,-0.201,,,,0.1918068412
1748245842555713254,-0.142,,,,0.1925771559
1748245842563416401,-0.164,,,,0.1933474706
1748245842571119548,-0.215,,,,0.1941177853
1748245842578822695,-0.203,,,,0.1948881
1748245842586525842,-0.203,,,,0.1956584147
1748245842594228989,-0.252,,,,0.1964287294
1748245842601932136,-0.242,,,,0.1971990441
1748245842609635283,-0.174,,,,0.1979693588
1748245842617338430,-0.125,,,,0.1987396735
1748245842625041577,-0.103,,,,0.1995099882
1748245842632744724,-0.154,,,,0.2002803029
1748245842640447871,-0.238,,,,0.2010506176
1748245842648151018,-0.223,,,,0.2018209323
1748245842655854165,-0.196,,,,0.202591247
1748245842663557312,-0.242,,,,0.2033615617
1748245842671260459,-0.223,,,,0.2041318764
1748245842678963606,-0.132,,,,0.2049021911
1748245842686666753,-0.149,,,,0.2056725058
1748245842694369900,-0.208,,,,0.2064428205
1748245842702073047,-0.201,,,,0.2072131352
1748245842709776194,-0.208,,,,0.2079834499
1748245842717479341,-0.215,,,,0.2087537646
1748245842725182488,-0.188,,,,0.2095240793
1748245842732885635,-0.208,,,,0.210294394
1748245842740588782,-0.211,,,,0.2110647087
1748245842748291929,-0.159,,,,0.2118350234
1748245842755995076,-0.188,,,,0.2126053381
1748245842763698223,-0.213,,,,0.2133756528
1748245842771401370,-0.179,,,,0.2141459675
1748245842779104517,-0.228,,,,0.2149162822
1748245842786807664,-0.255,,,,0.2156865969
1748245842794510811,-0.184,,,,0.2164569116
1748245842802213958,-0.164,,,,0.2172272263
1748245842809917105,-0.161,,,,0.217997541
1748245842817620252,-0.1,,,,0.2187678557
1748245842825323399,-0.115,,,,0.2195381704
1748245842833026546,-0.184,,,,0.2203084851
1748245842840729693,-0.174,,,,0.2210787998
1748245842848432840,-0.186,,,,0.2218491145
1748245842856135987,-0.23,,,,0.2226194292
1748245842863839134,-0.23,,,,0.2233897439
1748245842871542281,-0.196,,,,0.2241600586
1748245842879245454,-0.149,90.0,645.0,,0.2249303759
1748245842886948322,-0.161,,624.0,,0.2257006627
1748245842894651190,-0.181,,,,0.2264709495
1748245842902354058,-0.085,,,,0.2272412363
1748245842910056926,0.127,,,,0.2280115231
1748245842917759794,0.331,,,,0.2287818099
1748245842925462662,0.169,,,,0.2295520967
1748245842933165530,-0.409,,,,0.2303223835
1748245842940868398,-0.677,,,,0.2310926703
1748245842948571266,-0.365,,,,0.2318629571
1748245842956274134,-0.12,,,,0.2326332439
1748245842963977002,-0.184,,,,0.2334035307
1748245842971679870,-0.23,,,,0.2341738175
1748245842979382738,-0.196,,,,0.2349441043
1748245842987085606,-0.198,,,,0.2357143911
1748245842994788474,-0.201,,,,0.2364846779
1748245843002491342,-0.201,,,,0.2372549647
1748245843010194210,-0.179,,,,0.2380252515
1748245843017897078,-0.103,,,,0.2387955383
1748245843025599946,-0.117,,,,0.2395658251
1748245843033302814,-0.211,,,,0.2403361119
1748245843041005682,-0.206,,,,0.2411063987
1748245843048708550,-0.144,,,,0.2418766855
1748245843056411418,-0.144,,,,0.2426469723
1748245843064114286,-0.176,,,,0.2434172591
1748245843071817154,-0.125,,,,0.2441875459
1748245843079520022,-0.071,,,,0.2449578327
1748245843087222890,-0.1,,,,0.2457281195
1748245843094925758,-0.088,,,,0.2464984063
1748245843102628626,-0.061,,,,0.2472686931
1748245843110331494,-0.08,,,,0.2480389799
1748245843118034362,-0.044,,,,0.2488092667
1748245843125737230,-0.009,,,,0.2495795535
1748245843133440098,-0.051,,,,0.2503498403
1748245843141142966,-0.034,,,,0.2511201271
1748245843148845834,0.039,,,,0.2518904139
1748245843156548702,0.004,,,,0.2526607007
1748245843164251570,-0.031,,,,0.2534309875
1748245843171954438,-0.017,,,,0.2542012743
1748245843179657306,-0.046,,,,0.2549715611
1748245843187360174,-0.09,,,,0.2557418479
1748245843195063042,-0.127,,,,0.2565121347
1748245843202765910,-0.13,,,,0.2572824215
1748245843210468778,-0.085,,,,0.2580527083
1748245843218171646,-0.09,,,,0.2588229951
1748245843225874514,-0.107,,,,0.2595932819
1748245843233577382,-0.08,,,,0.2603635687
1748245843241280250,-0.095,,,,0.2611338555
1748245843248983118,-0.132,,,,0.2619041423
1748245843256685986,-0.127,,,,0.2626744291
1748245843264388854,-0.147,,,,0.2634447159
1748245843272091722,-0.201,,,,0.2642150027
1748245843279794590,-0.152,,,,0.2649852895
1748245843287497458,-0.022,,,,0.2657555763
1748245843295200326,-0.044,,,,0.2665258631
1748245843302903194,-0.171,,,,0.2672961499
1748245843310606062,-0.149,,,,0.2680664367
1748245843318308930,-0.127,,,,0.2688367235
1748245843326011798,-0.23,,,,0.2696070103
1748245843333714666,-0.206,,,,0.2703772971
1748245843341417534,-0.063,,,,0.2711475839
1748245843349120402,-0.076,,,,0.2719178707
1748245843356823270,-0.169,,,,0.2726881575
1748245843364526138,-0.184,,,,0.2734584443
1748245843372229006,-0.169,,,,0.2742287311
1748245843379931874,-0.196,,,,0.2749990179
1748245843387634742,-0.25,,,,0.2757693047
1748245843395337610,-0.225,,,,0.2765395915
1748245843403040478,-0.107,,,,0.2773098783
1748245843410743346,-0.117,,,,0.2780801651
1748245843418446214,-0.235,,,,0.2788504519
1748245843426149082,-0.223,,,,0.2796207387
1748245843433851950,-0.181,,,,0.2803910255
1748245843441554859,-0.238,,,,0.2811613164
1748245843449257727,-0.245,,,,0.2819316032
1748245843456960595,-0.215,,,,0.28270189
1748245843464663463,-0.208,,,,0.2834721768
1748245843472366331,-0.122,,,,0.2842424636
1748245843480069199,-0.105,,,,0.2850127504
1748245843487772067,-0.223,,,,0.2857830372
1748245843495474935,-0.225,,,,0.286553324
1748245843503177803,-0.134,,,,0.2873236108
1748245843510880671,-0.152,,,,0.2880938976
1748245843518583539,-0.22,,,,0.2888641844
1748245843526286407,-0.198,,,,0.2896344712
1748245843533989275,-0.174,,,,0.290404758
1748245843541692143,-0.233,,,,0.2911750448
1748245843549395011,-0.255,,,,0.2919453316
1748245843557097879,-0.215,,,,0.2927156184
1748245843564800747,-0.206,,,,0.2934859052
1748245843572503615,-0.223,,,,0.294256192
1748245843580206483,-0.225,,,,0.2950264788
1748245843587909351,-0.152,,,,0.2957967656
1748245843595612219,0.073,,,,0.2965670524
1748245843603315087,0.321,,,,0.2973373392
1748245843611017955,0.152,,,,0.298107626
1748245843618720823,-0.453,,,,0.2988779128
1748245843626423691,-0.723,,,,0.2996481996
1748245843634126559,-0.441,,,,0.3004184864
1748245843641829427,-0.25,,,,0.3011887732
1748245843649532295,-0.318,,,,0.30195906
1748245843657235163,-0.314,,,,0.3027293468
1748245843664938031,-0.193,,,,0.3034996336
1748245843672640899,-0.147,,,,0.3042699204
1748245843680343767,-0.23,,,,0.3050402072
1748245843688046635,-0.282,,,,0.305810494
1748245843695749503,-0.22,,,,0.3065807808
1748245843703452371,-0.208,,,,0.3073510676
1748245843711155239,-0.26,,,,0.3081213544
1748245843718858107,-0.252,,,,0.3088916412
1748245843726560975,-0.198,,,,0.309661928
1748245843734263843,-0.181,,,,0.3104322148
1748245843741966711,-0.211,,,,0.3112025016
1748245843749669579,-0.206,,,,0.3119727884
1748245843757372447,-0.176,,,,0.3127430752
1748245843765075315,-0.193,,,,0.313513362
1748245843772778183,-0.201,,,,0.3142836488
1748245843780481051,-0.159,,,,0.3150539356
1748245843788183919,-0.139,,,,0.3158242224
1748245843795886787,-0.149,,,,0.3165945092
1748245843803589655,-0.139,,,,0.317364796
1748245843811292523,-0.132,,,,0.3181350828
1748245843818995391,-0.154,,,,0.3189053696
1748245843826698259,-0.169,,,,0.3196756564
1748245843834401127,-0.164,,,,0.3204459432
1748245843842103995,-0.193,,,,0.32121623
1748245843849806863,-0.242,,,,0.3219865168
1748245843857509731,-0.257,,,,0.3227568036
1748245843865212599,-0.279,,,,0.3235270904
1748245843872915467,-0.321,,,,0.3242973772
1748245843880618335,-0.321,,,,0.325067664
1748245843888321203,-0.328,,,,0.3258379508
1748245843896024071,-0.37,,,,0.3266082376
1748245843903726939,-0.336,,,,0.3273785244
1748245843911429807,-0.299,,,,0.3281488112
1748245843919132675,-0.358,,,,0.328919098
1748245843926835543,-0.429,,,,0.3296893848
1748245843934538411,-0.414,,,,0.3304596716
1748245843942241279,-0.392,,,,0.3312299584
1748245843949944147,-0.414,,,,0.3320002452
1748245843957647015,-0.451,,,,0.332770532
1748245843965349883,-0.483,,,,0.3335408188
1748245843973052751,-0.385,,,,0.3343111056
1748245843980755619,-0.291,,,,0.3350813924
1748245843988458487,-0.387,,,,0.3358516792
1748245843996161355,-0.434,,,,0.336621966
1748245844003864272,-0.35,91.0,643.0,,0.3373922577
1748245844011567419,-0.375,,,,0.3381625724
1748245844019270566,-0.444,,,,0.3389328871
1748245844026973713,-0.404,,,,0.3397032018
1748245844034676860,-0.399,,,,0.3404735165
1748245844042380007,-0.478,,,,0.3412438312
1748245844050083154,-0.439,,,,0.3420141459
1748245844057786301,-0.333,,,,0.3427844606
1748245844065489448,-0.363,,,,0.3435547753
1748245844073192595,-0.409,,,,0.34432509
1748245844080895742,-0.375,,,,0.3450954047
1748245844088598889,-0.372,,,,0.3458657194
1748245844096302036,-0.404,,,,0.3466360341
1748245844104005183,-0.412,,,,0.3474063488
1748245844111708330,-0.402,,,,0.3481766635
1748245844119411477,-0.429,,,,0.3489469782
1748245844127114624,-0.446,,,,0.3497172929
1748245844134817771,-0.336,,,,0.3504876076
1748245844142520918,-0.235,,,,0.3512579223
1748245844150224065,-0.294,,,,0.352028237
1748245844157927212,-0.353,,,,0.3527985517
1748245844165630359,-0.323,,,,0.3535688664
1748245844173333506,-0.321,,,,0.3543391811
1748245844181036653,-0.338,,,,0.3551094958
1748245844188739800,-0.35,,,,0.3558798105
1748245844196442947,-0.387,,,,0.3566501252
1748245844204146094,-0.39,,,,0.3574204399
1748245844211849241,-0.37,,,,0.3581907546
1748245844219552388,-0.39,,,,0.3589610693
1748245844227255535,-0.37,,,,0.359731384
1748245844234958682,-0.284,,,,0.3605016987
1748245844242661829,-0.198,,,,0.3612720134
1748245844250364976,-0.056,,,,0.3620423281
1748245844258068123,0.11,,,,0.3628126428
1748245844265771270,-0.046,,,,0.3635829575
1748245844273474417,-0.534,,,,0.3643532722
1748245844281177564,-0.709,,,,0.3651235869
1748245844288880711,-0.429,,,,0.3658939016
1748245844296583858,-0.336,,,,0.3666642163
1748245844304287005,-0.449,,,,0.367434531
1748245844311990152,-0.37,,,,0.3682048457
1748245844319693299,-0.284,,,,0.3689751604
1748245844327396446,-0.345,,,,0.3697454751
1748245844335099593,-0.328,,,,0.3705157898
1748245844342802740,-0.242,,,,0.3712861045
1748245844350505887,-0.257,,,,0.3720564192
1748245844358209034,-0.306,,,,0.3728267339
1748245844365912181,-0.279,,,,0.3735970486
1748245844373615328,-0.242,,,,0.3743673633
1748245844381318475,-0.257,,,,0.375137678
1748245844389021622,-0.287,,,,0.3759079927
1748245844396724769,-0.284,,,,0.3766783074
1748245844404427916,-0.24,,,,0.3774486221
1748245844412131063,-0.188,,,,0.3782189368
1748245844419834210,-0.198,,,,0.3789892515
1748245844427537357,-0.211,,,,0.3797595662
1748245844435240504,-0.179,,,,0.3805298809
1748245844442943651,-0.159,,,,0.3813001956
1748245844450646798,-0.152,,,,0.3820705103
1748245844458349945,-0.149,,,,0.382840825
1748245844466053092,-0.157,,,,0.3836111397
1748245844473756239,-0.125,,,,0.3843814544
1748245844481459386,-0.095,,,,0.3851517691
1748245844489162533,-0.171,,,,0.3859220838
1748245844496865680,-0.225,,,,0.3866923985
1748245844504568827,-0.164,,,,0.3874627132
1748245844512271974,-0.105,,,,0.3882330279
1748245844519975121,-0.11,,,,0.3890033426
1748245844527678268,-0.157,,,,0.3897736573
1748245844535381415,-0.198,,,,0.390543972
1748245844543084562,-0.23,,,,0.3913142867
1748245844550787709,-0.26,,,,0.3920846014
1748245844558490856,-0.262,,,,0.3928549161
1748245844566194025,-0.247,,,,0.393625233
1748245844573897032,-0.242,,,,0.3943955337
1748245844581600039,-0.233,,,,0.3951658344
1748245844589303046,-0.22,,,,0.3959361351
1748245844597006053,-0.218,,,,0.3967064358
1748245844604709060,-0.22,,,,0.3974767365
1748245844612412067,-0.215,,,,0.3982470372
1748245844620115074,-0.213,,,,0.3990173379
1748245844627818081,-0.211,,,,0.3997876386
1748245844635521088,-0.211,,,,0.4005579393
1748245844643224095,-0.215,,,,0.40132824
1748245844650927102,-0.22,,,,0.4020985407
1748245844658630109,-0.233,,,,0.4028688414
1748245844666333116,-0.242,,,,0.4036391421
1748245844674036123,-0.201,,,,0.4044094428
1748245844681739130,-0.179,,,,0.4051797435
1748245844689442137,-0.235,,,,0.4059500442
1748245844697145144,-0.255,,,,0.4067203449
1748245844704848151,-0.206,,,,0.4074906456
1748245844712551158,-0.23,,,,0.4082609463
1748245844720254165,-0.291,,,,0.409031247
1748245844727957172,-0.277,,,,0.4098015477
1748245844735660179,-0.257,,,,0.4105718484
1748245844743363186,-0.272,,,,0.4113421491
1748245844751066193,-0.269,,,,0.4121124498
1748245844758769200,-0.264,,,,0.4128827505
1748245844766472207,-0.304,,,,0.4136530512
1748245844774175214,-0.355,,,,0.4144233519
1748245844781878221,-0.331,,,,0.4151936526
1748245844789581228,-0.242,,,,0.4159639533
1748245844797284235,-0.24,,,,0.416734254
1748245844804987242,-0.314,,,,0.4175045547
1748245844812690249,-0.314,,,,0.4182748554
1748245844820393256,-0.279,,,,0.4190451561
1748245844828096263,-0.284,,,,0.4198154568
1748245844835799270,-0.284,,,,0.4205857575
1748245844843502277,-0.299,,,,0.4213560582
1748245844851205284,-0.343,,,,0.4221263589
1748245844858908291,-0.37,,,,0.4228966596
1748245844866611298,-0.37,,,,0.4236669603
1748245844874314305,-0.36,,,,0.424437261
1748245844882017312,-0.363,,,,0.4252075617
1748245844889720319,-0.372,,,,0.4259778624
1748245844897423326,-0.363,,,,0.4267481631
1748245844905126333,-0.363,,,,0.4275184638
1748245844912829340,-0.343,,,,0.4282887645
1748245844920532347,-0.164,,,,0.4290590652
1748245844928235354,0.105,,,,0.4298293659
1748245844935938361,0.058,,,,0.4305996666
1748245844943641368,-0.449,,,,0.4313699673
1748245844951344375,-0.8260000000000001,,,,0.432140268
1748245844959047382,-0.65,,,,0.4329105687
1748245844966750389,-0.395,,,,0.4336808694
1748245844974453396,-0.404,,,,0.4344511701
1748245844982156403,-0.422,,,,0.4352214708
1748245844989859410,-0.363,,,,0.4359917715
1748245844997562417,-0.36,,,,0.4367620722
1748245845005265424,-0.39,,,,0.4375323729
1748245845012968431,-0.385,,,,0.4383026736
1748245845020671438,-0.392,,,,0.4390729743
1748245845028374445,-0.409,,,,0.439843275
1748245845036077452,-0.382,,,,0.4406135757
1748245845043780459,-0.363,,,,0.4413838764
1748245845051483466,-0.37,,,,0.4421541771
1748245845059186473,-0.387,,,,0.4429244778
1748245845066889480,-0.404,,,,0.4436947785
1748245845074592487,-0.355,,,,0.4444650792
1748245845082295494,-0.267,,,,0.4452353799
1748245845089998501,-0.277,,,,0.4460056806
1748245845097701508,-0.314,,,,0.4467759813
1748245845105404515,-0.279,,,,0.447546282
1748245845113107522,-0.245,,,,0.4483165827
1748245845120810529,-0.245,,,,0.4490868834
1748245845128513608,-0.257,91.0,679.0,,0.4498571913
1748245845136216615,-0.272,,686.0,,0.450627492
1748245845143919622,-0.25,,,,0.4513977927
1748245845151622629,-0.22,,,,0.4521680934
1748245845159325636,-0.225,,,,0.4529383941
1748245845167028643,-0.238,,,,0.4537086948
1748245845174731650,-0.242,,,,0.4544789955
1748245845182434657,-0.245,,,,0.4552492962
1748245845190137664,-0.247,,,,0.4560195969
1748245845197840671,-0.262,,,,0.4567898976
1748245845205543678,-0.282,,,,0.4575601983
1748245845213246685,-0.294,,,,0.458330499
1748245845220949692,-0.309,,,,0.4591007997
1748245845228652699,-0.326,,,,0.4598711004
1748245845236355706,-0.338,,,,0.4606414011
1748245845244058713,-0.333,,,,0.4614117018
1748245845251761720,-0.316,,,,0.4621820025
1748245845259464727,-0.314,,,,0.4629523032
1748245845267167734,-0.321,,,,0.4637226039
1748245845274870741,-0.316,,,,0.4644929046
1748245845282573748,-0.301,,,,0.4652632053
1748245845290276755,-0.291,,,,0.466033506
1748245845297979762,-0.306,,,,0.4668038067
1748245845305682769,-0.326,,,,0.4675741074
1748245845313385776,-0.316,,,,0.4683444081
1748245845321088783,-0.306,,,,0.4691147088
1748245845328791790,-0.314,,,,0.4698850095
1748245845336494797,-0.306,,,,0.4706553102
1748245845344197804,-0.301,,,,0.4714256109
1748245845351900811,-0.306,,,,0.4721959116
1748245845359603818,-0.309,,,,0.4729662123
1748245845367306825,-0.316,,,,0.473736513
1748245845375009832,-0.323,,,,0.4745068137
1748245845382712839,-0.318,,,,0.4752771144
1748245845390415846,-0.304,,,,0.4760474151
1748245845398118853,-0.299,,,,0.4768177158
1748245845405821860,-0.314,,,,0.4775880165
1748245845413524867,-0.323,,,,0.4783583172
1748245845421227874,-0.331,,,,0.4791286179
1748245845428930881,-0.314,,,,0.4798989186
1748245845436633888,-0.269,,,,0.4806692193
1748245845444336895,-0.25,,,,0.48143952
1748245845452039902,-0.262,,,,0.4822098207
1748245845459742909,-0.309,,,,0.4829801214
1748245845467445916,-0.368,,,,0.4837504221
1748245845475148923,-0.36,,,,0.4845207228
1748245845482851930,-0.311,,,,0.4852910235
1748245845490554937,-0.274,,,,0.4860613242
1748245845498257944,-0.242,,,,0.4868316249
1748245845505960951,-0.223,,,,0.4876019256
1748245845513663958,-0.228,,,,0.4883722263
1748245845521366965,-0.25,,,,0.489142527
1748245845529069972,-0.289,,,,0.4899128277
1748245845536772979,-0.311,,,,0.4906831284
1748245845544475986,-0.301,,,,0.4914534291
1748245845552178993,-0.301,,,,0.4922237298
1748245845559882000,-0.306,,,,0.4929940305
1748245845567585007,-0.299,,,,0.4937643312
1748245845575288014,-0.291,,,,0.4945346319
1748245845582991021,-0.289,,,,0.4953049326
1748245845590694028,-0.257,,,,0.4960752333
1748245845598397035,-0.085,,,,0.496845534
1748245845606100042,0.184,,,,0.4976158347
1748245845613803049,0.169,,,,0.4983861354
1748245845621506056,-0.358,,,,0.4991564361
1748245845629209063,-0.77,,,,0.4999267368
1748245845636912070,-0.5740000000000001,,,,0.5006970375
1748245845644615077,-0.318,,,,0.5014673382
1748245845652318084,-0.36,,,,0.5022376389
1748245845660021091,-0.365,,,,0.5030079396
1748245845667724098,-0.294,,,,0.5037782403
1748245845675427105,-0.314,,,,0.504548541
1748245845683130112,-0.345,,,,0.5053188417
1748245845690833187,-0.348,,,,0.5060891492
1748245845698535985,-0.345,,,,0.506859429
1748245845706238783,-0.294,,,,0.5076297088
1748245845713941581,-0.235,,,,0.5083999886
1748245845721644379,-0.255,,,,0.5091702684
1748245845729347177,-0.304,,,,0.5099405482
1748245845737049975,-0.314,,,,0.510710828
1748245845744752773,-0.272,,,,0.5114811078
1748245845752455571,-0.252,,,,0.5122513876
1748245845760158369,-0.304,,,,0.5130216674
1748245845767861167,-0.348,,,,0.5137919472
1748245845775563965,-0.314,,,,0.514562227
1748245845783266763,-0.225,,,,0.5153325068
1748245845790969561,-0.166,,,,0.5161027866
1748245845798672359,-0.188,,,,0.5168730664
1748245845806375157,-0.218,,,,0.5176433462
1748245845814077955,-0.211,,,,0.518413626
1748245845821780753,-0.206,,,,0.5191839058
1748245845829483551,-0.22,,,,0.5199541856
1748245845837186349,-0.225,,,,0.5207244654
1748245845844889147,-0.23,,,,0.5214947452
1748245845852591945,-0.242,,,,0.522265025
1748245845860294743,-0.252,,,,0.5230353048
1748245845867997541,-0.267,,,,0.5238055846
1748245845875700339,-0.299,,,,0.5245758644
1748245845883403137,-0.326,,,,0.5253461442
1748245845891105935,-0.336,,,,0.526116424
1748245845898808733,-0.343,,,,0.5268867038
1748245845906511531,-0.363,,,,0.5276569836
1748245845914214329,-0.368,,,,0.5284272634
1748245845921917127,-0.343,,,,0.5291975432
1748245845929619925,-0.323,,,,0.529967823
1748245845937322723,-0.36,,,,0.5307381028
1748245845945025521,-0.397,,,,0.5315083826
1748245845952728319,-0.375,,,,0.5322786624
1748245845960431117,-0.358,,,,0.5330489422
1748245845968133915,-0.372,,,,0.533819222
1748245845975836713,-0.372,,,,0.5345895018
1748245845983539511,-0.35,,,,0.5353597816
1748245845991242309,-0.318,,,,0.5361300614
1748245845998945107,-0.309,,,,0.5369003412
1748245846006647905,-0.326,,,,0.537670621
1748245846014350703,-0.331,,,,0.5384409008
1748245846022053501,-0.331,,,,0.5392111806
1748245846029756299,-0.345,,,,0.5399814604
1748245846037459097,-0.345,,,,0.5407517402
1748245846045161895,-0.343,,,,0.54152202
1748245846052864693,-0.365,,,,0.5422922998
1748245846060567491,-0.365,,,,0.5430625796
1748245846068270289,-0.336,,,,0.5438328594
1748245846075973087,-0.333,,,,0.5446031392
1748245846083675885,-0.353,,,,0.545373419
1748245846091378683,-0.353,,,,0.5461436988
1748245846099081481,-0.323,,,,0.5469139786
1748245846106784279,-0.304,,,,0.5476842584
1748245846114487077,-0.326,,,,0.5484545382
1748245846122189875,-0.331,,,,0.549224818
1748245846129892673,-0.311,,,,0.5499950978
1748245846137595471,-0.323,,,,0.5507653776
1748245846145298269,-0.338,,,,0.5515356574
1748245846153001067,-0.336,,,,0.5523059372
1748245846160703865,-0.338,,,,0.553076217
1748245846168406663,-0.338,,,,0.5538464968
1748245846176109461,-0.336,,,,0.5546167766
1748245846183812259,-0.348,,,,0.5553870564
1748245846191515057,-0.368,,,,0.5561573362
1748245846199217855,-0.38,,,,0.556927616
1748245846206920653,-0.37,,,,0.5576978958
1748245846214623451,-0.333,,,,0.5584681756
1748245846222326249,-0.314,,,,0.5592384554
1748245846230029047,-0.284,,,,0.5600087352
1748245846237731845,-0.11,,,,0.560779015
1748245846245434643,0.122,,,,0.5615492948
1748245846253137509,0.0,91.0,653.0,,0.5623195814
1748245846260840307,-0.502,,,,0.5630898612
1748245846268543105,-0.748,,,,0.563860141
1748245846276245903,-0.544,,,,0.5646304208
1748245846283948701,-0.382,,,,0.5654007006
1748245846291651499,-0.397,,,,0.5661709804
1748245846299354297,-0.387,,,,0.5669412602
1748245846307057095,-0.365,,,,0.56771154
1748245846314759893,-0.355,,,,0.5684818198
1748245846322462691,-0.338,,,,0.5692520996
1748245846330165489,-0.355,,,,0.5700223794
1748245846337868287,-0.363,,,,0.5707926592
1748245846345571085,-0.316,,,,0.571562939
1748245846353273883,-0.311,,,,0.5723332188
1748245846360976681,-0.358,,,,0.5731034986
1748245846368679479,-0.355,,,,0.5738737784
1748245846376382277,-0.318,,,,0.5746440582
1748245846384085075,-0.314,,,,0.575414338
1748245846391787873,-0.318,,,,0.5761846178
1748245846399490671,-0.299,,,,0.5769548976
1748245846407193469,-0.284,,,,0.5777251774
1748245846414896267,-0.279,,,,0.5784954572
1748245846422599065,-0.25,,,,0.579265737
1748245846430301863,-0.215,,,,0.5800360168
1748245846438004661,-0.213,,,,0.5808062966
1748245846445707459,-0.24,,,,0.5815765764
1748245846453410257,-0.257,,,,0.5823468562
1748245846461113055,-0.225,,,,0.583117136
1748245846468815853,-0.208,,,,0.5838874158
1748245846476518651,-0.245,,,,0.5846576956
1748245846484221449,-0.26,,,,0.5854279754
1748245846491924247,-0.223,,,,0.5861982552
1748245846499627045,-0.196,,,,0.586968535
1748245846507329843,-0.208,,,,0.5877388148
1748245846515032641,-0.242,,,,0.5885090946
1748245846522735439,-0.26,,,,0.5892793744
1748245846530438237,-0.242,,,,0.5900496542
1748245846538141035,-0.242,,,,0.590819934
1748245846545843833,-0.279,,,,0.5915902138
1748245846553546631,-0.291,,,,0.5923604936
1748245846561249429,-0.262,,,,0.5931307734
1748245846568952227,-0.262,,,,0.5939010532
1748245846576655025,-0.274,,,,0.594671333
1748245846584357823,-0.262,,,,0.5954416128
1748245846592060621,-0.247,,,,0.5962118926
1748245846599763419,-0.23,,,,0.5969821724
1748245846607466217,-0.215,,,,0.5977524522
1748245846615169015,-0.255,,,,0.598522732
1748245846622871813,-0.269,,,,0.5992930118
1748245846630574611,-0.223,,,,0.6000632916
1748245846638277409,-0.198,,,,0.6008335714
1748245846645980207,-0.22,,,,0.6016038512
1748245846653683005,-0.264,,,,0.602374131
1748245846661385803,-0.274,,,,0.6031444108
1748245846669088601,-0.235,,,,0.6039146906
1748245846676791399,-0.238,,,,0.6046849704
1748245846684494197,-0.274,,,,0.6054552502
1748245846692196995,-0.262,,,,0.60622553
1748245846699899793,-0.238,,,,0.6069958098
1748245846707602591,-0.218,,,,0.6077660896
1748245846715305389,-0.213,,,,0.6085363694
1748245846723008187,-0.25,,,,0.6093066492
1748245846730710985,-0.279,,,,0.610076929
1748245846738413783,-0.267,,,,0.6108472088
1748245846746116581,-0.252,,,,0.6116174886
1748245846753819379,-0.235,,,,0.6123877684
1748245846761522177,-0.208,,,,0.6131580482
1748245846769224975,-0.203,,,,0.613928328
1748245846776927773,-0.211,,,,0.6146986078
1748245846784630571,-0.22,,,,0.6154688876
1748245846792333369,-0.255,,,,0.6162391674
1748245846800036167,-0.291,,,,0.6170094472
1748245846807738965,-0.289,,,,0.617779727
1748245846815441831,-0.262,91.0,673.0,,0.6185500136
1748245846823145048,-0.233,,678.0,,0.6193203353
1748245846830848265,-0.22,,,,0.620090657
1748245846838551482,-0.238,,,,0.6208609787
1748245846846254699,-0.225,,,,0.6216313004
1748245846853957916,-0.083,,,,0.6224016221
1748245846861661133,0.139,,,,0.6231719438
1748245846869364350,0.179,,,,0.6239422655
1748245846877067567,-0.186,,,,0.6247125872
1748245846884770784,-0.623,,,,0.6254829089
1748245846892474001,-0.5760000000000001,,,,0.6262532306
1748245846900177218,-0.316,,,,0.6270235523
1748245846907880435,-0.274,,,,0.627793874
1748245846915583652,-0.272,,,,0.6285641957
1748245846923286869,-0.22,,,,0.6293345174
1748245846930990086,-0.233,,,,0.6301048391
1748245846938693303,-0.264,,,,0.6308751608
1748245846946396520,-0.26,,,,0.6316454825
1748245846954099737,-0.25,,,,0.6324158042
1748245846961802954,-0.257,,,,0.6331861259
1748245846969506171,-0.264,,,,0.6339564476
1748245846977209388,-0.26,,,,0.6347267693
1748245846984912605,-0.22,,,,0.635497091
1748245846992615822,-0.169,,,,0.6362674127
1748245847000319039,-0.169,,,,0.6370377344
1748245847008022256,-0.188,,,,0.6378080561
1748245847015725473,-0.196,,,,0.6385783778
1748245847023428690,-0.203,,,,0.6393486995
1748245847031131907,-0.208,,,,0.6401190212
1748245847038835124,-0.203,,,,0.6408893429
1748245847046538341,-0.166,,,,0.6416596646
1748245847054241558,-0.11,,,,0.6424299863
1748245847061944775,-0.085,,,,0.643200308
1748245847069647992,-0.115,,,,0.6439706297
1748245847077351209,-0.125,,,,0.6447409514
1748245847085054426,-0.11,,,,0.6455112731
1748245847092757643,-0.139,,,,0.6462815948
1748245847100460860,-0.125,,,,0.6470519165
1748245847108164077,-0.083,,,,0.6478222382
1748245847115867294,-0.13,,,,0.6485925599
1748245847123570511,-0.137,,,,0.6493628816
1748245847131273728,-0.103,,,,0.6501332033
1748245847138976945,-0.154,,,,0.650903525
1748245847146680162,-0.213,,,,0.6516738467
1748245847154383379,-0.23,,,,0.6524441684
1748245847162086596,-0.242,,,,0.6532144901
1748245847169789813,-0.193,,,,0.6539848118
1748245847177493030,-0.149,,,,0.6547551335
1748245847185196247,-0.196,,,,0.6555254552
1748245847192899464,-0.22,,,,0.6562957769
1748245847200602681,-0.188,,,,0.6570660986
1748245847208305898,-0.171,,,,0.6578364203
1748245847216009115,-0.188,,,,0.658606742
1748245847223712332,-0.213,,,,0.6593770637
1748245847231415549,-0.223,,,,0.6601473854
1748245847239118766,-0.218,,,,0.6609177071
1748245847246821983,-0.208,,,,0.6616880288
1748245847254525200,-0.184,,,,0.6624583505
1748245847262228417,-0.157,,,,0.6632286722
1748245847269931634,-0.213,,,,0.6639989939
1748245847277634851,-0.291,,,,0.6647693156
1748245847285338068,-0.252,,,,0.6655396373
1748245847293041285,-0.203,,,,0.666309959
1748245847300744502,-0.23,,,,0.6670802807
1748245847308447719,-0.208,,,,0.6678506024
1748245847316150936,-0.125,,,,0.6686209241
1748245847323854153,-0.164,,,,0.6693912458
1748245847331557370,-0.309,,,,0.6701615675
1748245847339260587,-0.309,,,,0.6709318892
1748245847346963804,-0.208,,,,0.6717022109
1748245847354667021,-0.206,,,,0.6724725326
1748245847362370238,-0.235,,,,0.6732428543
1748245847370073455,-0.191,,,,0.674013176
1748245847377776675,-0.176,,,,0.674783498
1748245847385479613,-0.215,,,,0.6755537918
1748245847393182551,-0.188,,,,0.6763240856
1748245847400885489,-0.157,,,,0.6770943794
1748245847408588427,-0.215,,,,0.6778646732
1748245847416291365,-0.245,,,,0.678634967
1748245847423994303,-0.208,,,,0.6794052608
1748245847431697241,-0.193,,,,0.6801755546
1748245847439400179,-0.225,,,,0.6809458484
1748245847447103117,-0.267,,,,0.6817161422
1748245847454806055,-0.228,,,,0.682486436
1748245847462508993,-0.139,,,,0.6832567298
1748245847470211931,-0.066,,,,0.6840270236
1748245847477914869,0.122,,,,0.6847973174
1748245847485617807,0.309,,,,0.6855676112
1748245847493320745,0.024,,,,0.686337905
1748245847501023683,-0.539,,,,0.6871081988
1748245847508726621,-0.601,,,,0.6878784926
1748245847516429559,-0.282,,,,0.6886487864
1748245847524132497,-0.211,,,,0.6894190802
1748245847531835435,-0.264,,,,0.690189374
1748245847539538373,-0.181,,,,0.6909596678
1748245847547241311,-0.149,,,,0.6917299616
1748245847554944249,-0.213,,,,0.6925002554
1748245847562647187,-0.203,,,,0.6932705492
1748245847570350125,-0.198,,,,0.694040843
1748245847578053063,-0.245,,,,0.6948111368
1748245847585756001,-0.211,,,,0.6955814306
1748245847593458939,-0.122,,,,0.6963517244
1748245847601161877,-0.117,,,,0.6971220182
1748245847608864815,-0.161,,,,0.697892312
1748245847616567753,-0.142,,,,0.6986626058
1748245847624270691,-0.115,,,,0.6994328996
1748245847631973629,-0.134,,,,0.7002031934
1748245847639676567,-0.125,,,,0.7009734872
1748245847647379505,-0.103,,,,0.701743781
1748245847655082443,-0.117,,,,0.7025140748
1748245847662785381,-0.095,,,,0.7032843686
1748245847670488319,-0.034,,,,0.7040546624
1748245847678191257,-0.083,,,,0.7048249562
1748245847685894195,-0.103,,,,0.70559525
1748245847693597133,0.0,,,,0.7063655438
1748245847701300071,-0.031,,,,0.7071358376
1748245847709003009,-0.125,,,,0.7079061314
1748245847716705947,-0.068,,,,0.7086764252
1748245847724408885,-0.034,,,,0.709446719
1748245847732111823,-0.088,,,,0.7102170128
1748245847739814761,-0.08,,,,0.7109873066
1748245847747517699,-0.095,,,,0.7117576004
1748245847755220637,-0.191,,,,0.7125278942
1748245847762923575,-0.22,,,,0.713298188
1748245847770626513,-0.159,,,,0.7140684818
1748245847778329451,-0.13,,,,0.7148387756
1748245847786032389,-0.159,,,,0.7156090694
1748245847793735327,-0.179,,,,0.7163793632
1748245847801438265,-0.188,,,,0.717149657
1748245847809141203,-0.213,,,,0.7179199508
1748245847816844141,-0.208,,,,0.7186902446
1748245847824547079,-0.215,,,,0.7194605384
1748245847832250017,-0.223,,,,0.7202308322
1748245847839952955,-0.176,,,,0.721001126
1748245847847655893,-0.147,,,,0.7217714198
1748245847855358831,-0.161,,,,0.7225417136
1748245847863061769,-0.245,,,,0.7233120074
1748245847870764707,-0.326,,,,0.7240823012
1748245847878467645,-0.245,,,,0.724852595
1748245847886170583,-0.134,,,,0.7256228888
1748245847893873521,-0.186,,,,0.7263931826
1748245847901576459,-0.24,,,,0.7271634764
1748245847909279397,-0.211,,,,0.7279337702
1748245847916982335,-0.193,,,,0.728704064
1748245847924685273,-0.22,,,,0.7294743578
1748245847932388211,-0.255,,,,0.7302446516
1748245847940091171,-0.26,90.0,638.0,,0.7310149476
1748245847947794248,-0.235,,619.0,,0.7317852553
1748245847955497325,-0.223,,,,0.732555563
1748245847963200402,-0.25,,,,0.7333258707
1748245847970903479,-0.238,,,,0.7340961784
1748245847978606556,-0.176,,,,0.7348664861
1748245847986309633,-0.174,,,,0.7356367938
1748245847994012710,-0.196,,,,0.7364071015
1748245848001715787,-0.184,,,,0.7371774092
1748245848009418864,-0.213,,,,0.7379477169
1748245848017121941,-0.225,,,,0.7387180246
1748245848024825018,-0.198,,,,0.7394883323
1748245848032528095,-0.233,,,,0.74025864
1748245848040231172,-0.269,,,,0.7410289477
1748245848047934249,-0.264,,,,0.7417992554
1748245848055637326,-0.272,,,,0.7425695631
1748245848063340403,-0.218,,,,0.7433398708
1748245848071043480,-0.144,,,,0.7441101785
1748245848078746557,-0.147,,,,0.7448804862
1748245848086449634,-0.026,,,,0.7456507939
1748245848094152711,0.238,,,,0.7464211016
1748245848101855788,0.161,,,,0.7471914093
1748245848109558865,-0.365,,,,0.747961717
1748245848117261942,-0.664,,,,0.7487320247
1748245848124965019,-0.441,,,,0.7495023324
1748245848132668096,-0.228,,,,0.7502726401
1748245848140371173,-0.255,,,,0.7510429478
1748245848148074250,-0.24,,,,0.7518132555
1748245848155777327,-0.171,,,,0.7525835632
1748245848163480404,-0.22,,,,0.7533538709
1748245848171183481,-0.296,,,,0.7541241786
1748245848178886558,-0.282,,,,0.7548944863
1748245848186589635,-0.235,,,,0.755664794
1748245848194292712,-0.203,,,,0.7564351017
1748245848201995789,-0.198,,,,0.7572054094
1748245848209698866,-0.262,,,,0.7579757171
1748245848217401943,-0.284,,,,0.7587460248
1748245848225105020,-0.203,,,,0.7595163325
1748245848232808097,-0.191,,,,0.7602866402
1748245848240511174,-0.245,,,,0.7610569479
1748245848248214251,-0.225,,,,0.7618272556
1748245848255917328,-0.23,,,,0.7625975633
1748245848263620405,-0.247,,,,0.763367871
1748245848271323482,-0.164,,,,0.7641381787
1748245848279026559,-0.112,,,,0.7649084864
1748245848286729636,-0.13,,,,0.7656787941
1748245848294432713,-0.134,,,,0.7664491018
1748245848302135790,-0.171,,,,0.7672194095
1748245848309838867,-0.23,,,,0.7679897172
1748245848317541944,-0.233,,,,0.7687600249
1748245848325245021,-0.159,,,,0.7695303326
1748245848332948098,-0.098,,,,0.7703006403
1748245848340651175,-0.134,,,,0.771070948
1748245848348354252,-0.171,,,,0.7718412557
1748245848356057329,-0.161,,,,0.7726115634
1748245848363760406,-0.238,,,,0.7733818711
1748245848371463483,-0.311,,,,0.7741521788
1748245848379166560,-0.23,,,,0.7749224865
1748245848386869637,-0.225,,,,0.7756927942
1748245848394572714,-0.311,,,,0.7764631019
1748245848402275791,-0.252,,,,0.7772334096
1748245848409978868,-0.215,,,,0.7780037173
1748245848417681945,-0.289,,,,0.778774025
1748245848425385022,-0.279,,,,0.7795443327
1748245848433088099,-0.23,,,,0.7803146404
1748245848440791176,-0.24,,,,0.7810849481
1748245848448494253,-0.252,,,,0.7818552558
1748245848456197330,-0.269,,,,0.7826255635
1748245848463900407,-0.304,,,,0.7833958712
1748245848471603484,-0.316,,,,0.7841661789
1748245848479306561,-0.272,,,,0.7849364866
1748245848487009638,-0.179,,,,0.7857067943
1748245848494712715,-0.169,,,,0.786477102
1748245848502415837,-0.269,,,,0.7872474142
1748245848510118635,-0.333,,,,0.788017694
1748245848517821433,-0.289,,,,0.7887879738
1748245848525524231,-0.23,,,,0.7895582536
1748245848533227029,-0.26,,,,0.7903285334
1748245848540929827,-0.306,,,,0.7910988132
1748245848548632625,-0.323,,,,0.791869093
1748245848556335423,-0.338,,,,0.7926393728
1748245848564038221,-0.24,,,,0.7934096526
1748245848571741019,-0.159,,,,0.7941799324
1748245848579443817,-0.272,,,,0.7949502122
1748245848587146615,-0.299,,,,0.795720492
1748245848594849413,-0.198,,,,0.7964907718
1748245848602552211,-0.245,,,,0.7972610516
1748245848610255009,-0.333,,,,0.7980313314
1748245848617957807,-0.274,,,,0.7988016112
1748245848625660605,-0.201,,,,0.799571891
1748245848633363403,-0.287,,,,0.8003421708
1748245848641066201,-0.392,,,,0.8011124506
1748245848648768999,-0.348,,,,0.8018827304
1748245848656471797,-0.26,,,,0.8026530102
1748245848664174595,-0.211,,,,0.80342329
1748245848671877393,-0.223,,,,0.8041935698
1748245848679580191,-0.125,,,,0.8049638496
1748245848687282989,0.169,,,,0.8057341294
1748245848694985787,0.142,,,,0.8065044092
1748245848702688585,-0.426,,,,0.807274689
1748245848710391383,-0.755,,,,0.8080449688
1748245848718094181,-0.485,,,,0.8088152486
1748245848725796979,-0.272,,,,0.8095855284
1748245848733499777,-0.318,,,,0.8103558082
1748245848741202575,-0.316,,,,0.811126088
1748245848748905373,-0.318,,,,0.8118963678
1748245848756608171,-0.377,,,,0.8126666476
1748245848764310969,-0.36,,,,0.8134369274
1748245848772013767,-0.287,,,,0.8142072072
1748245848779716565,-0.235,,,,0.814977487
1748245848787419363,-0.247,,,,0.8157477668
1748245848795122161,-0.328,,,,0.8165180466
1748245848802824959,-0.37,,,,0.8172883264
1748245848810527757,-0.267,,,,0.8180586062
1748245848818230555,-0.164,,,,0.818828886
1748245848825933353,-0.24,,,,0.8195991658
1748245848833636151,-0.331,,,,0.8203694456
1748245848841338949,-0.304,,,,0.8211397254
1748245848849041747,-0.262,,,,0.8219100052
1748245848856744545,-0.201,,,,0.822680285
1748245848864447343,-0.13,,,,0.8234505648
1748245848872150141,-0.169,,,,0.8242208446
1748245848879852939,-0.26,,,,0.8249911244
1748245848887555737,-0.262,,,,0.8257614042
1748245848895258535,-0.213,,,,0.826531684
1748245848902961333,-0.218,,,,0.8273019638
1748245848910664131,-0.225,,,,0.8280722436
1748245848918366929,-0.181,,,,0.8288425234
1748245848926069727,-0.181,,,,0.8296128032
1748245848933772525,-0.22,,,,0.830383083
1748245848941475323,-0.176,,,,0.8311533628
1748245848949178121,-0.176,,,,0.8319236426
1748245848956880919,-0.333,,,,0.8326939224
1748245848964583717,-0.397,,,,0.8334642022
1748245848972286515,-0.289,,,,0.834234482
1748245848979989313,-0.252,,,,0.8350047618
1748245848987692111,-0.304,,,,0.8357750416
1748245848995394909,-0.282,,,,0.8365453214
1748245849003097707,-0.24,,,,0.8373156012
1748245849010800505,-0.279,,,,0.838085881
1748245849018503303,-0.326,,,,0.8388561608
1748245849026206101,-0.321,,,,0.8396264406
1748245849033908899,-0.316,,,,0.8403967204
1748245849041611697,-0.326,,,,0.8411670002
1748245849049314495,-0.267,,,,0.84193728
1748245849057017293,-0.164,,,,0.8427075598
1748245849064720159,-0.181,91.0,618.0,,0.8434778464
1748245849072422957,-0.289,,,,0.8442481262
1748245849080125755,-0.291,,,,0.845018406
1748245849087828553,-0.252,,,,0.8457886858
1748245849095531351,-0.255,,,,0.8465589656
1748245849103234149,-0.299,,,,0.8473292454
1748245849110936947,-0.365,,,,0.8480995252
1748245849118639745,-0.296,,,,0.848869805
1748245849126342543,-0.179,,,,0.8496400848
1748245849134045341,-0.211,,,,0.8504103646
1748245849141748139,-0.24,,,,0.8511806444
1748245849149450937,-0.213,,,,0.8519509242
1748245849157153735,-0.257,,,,0.852721204
1748245849164856533,-0.309,,,,0.8534914838
1748245849172559331,-0.262,,,,0.8542617636
1748245849180262129,-0.191,,,,0.8550320434
1748245849187964927,-0.176,,,,0.8558023232
1748245849195667725,-0.188,,,,0.856572603
1748245849203370523,-0.233,,,,0.8573428828
1748245849211073321,-0.25,,,,0.8581131626
1748245849218776119,-0.25,,,,0.8588834424
1748245849226478917,-0.318,,,,0.8596537222
1748245849234181715,-0.311,,,,0.860424002
1748245849241884513,-0.215,,,,0.8611942818
1748245849249587311,-0.157,,,,0.8619645616
1748245849257290109,-0.019,,,,0.8627348414
1748245849264992907,0.215,,,,0.8635051212
1748245849272695705,0.181,,,,0.864275401
1748245849280398503,-0.309,,,,0.8650456808
1748245849288101301,-0.706,,,,0.8658159606
1748245849295804099,-0.517,,,,0.8665862404
1748245849303506897,-0.228,,,,0.8673565202
1748245849311209695,-0.198,,,,0.8681268
1748245849318912493,-0.218,,,,0.8688970798
1748245849326615291,-0.252,,,,0.8696673596
1748245849334318089,-0.284,,,,0.8704376394
1748245849342020887,-0.267,,,,0.8712079192
1748245849349723685,-0.255,,,,0.871978199
1748245849357426483,-0.242,,,,0.8727484788
1748245849365129281,-0.257,,,,0.8735187586
1748245849372832079,-0.257,,,,0.8742890384
1748245849380534877,-0.144,,,,0.8750593182
1748245849388237675,-0.159,,,,0.875829598
1748245849395940473,-0.314,,,,0.8765998778
1748245849403643271,-0.272,,,,0.8773701576
1748245849411346069,-0.179,,,,0.8781404374
1748245849419048867,-0.159,,,,0.8789107172
1748245849426751665,-0.093,,,,0.879680997
1748245849434454463,-0.171,,,,0.8804512768
1748245849442157261,-0.25,,,,0.8812215566
1748245849449860059,-0.071,,,,0.8819918364
1748245849457562857,-0.046,,,,0.8827621162
1748245849465265655,-0.198,,,,0.883532396
1748245849472968453,-0.115,,,,0.8843026758
1748245849480671251,-0.039,,,,0.8850729556
1748245849488374049,-0.122,,,,0.8858432354
1748245849496076847,-0.095,,,,0.8866135152
1748245849503779645,-0.073,,,,0.887383795
1748245849511482443,-0.164,,,,0.8881540748
1748245849519185241,-0.179,,,,0.8889243546
1748245849526888039,-0.127,,,,0.8896946344
1748245849534590837,-0.134,,,,0.8904649142
1748245849542293635,-0.152,,,,0.891235194
1748245849549996433,-0.152,,,,0.8920054738
1748245849557699231,-0.208,,,,0.8927757536
1748245849565402029,-0.289,,,,0.8935460334
1748245849573104827,-0.269,,,,0.8943163132
1748245849580807625,-0.157,,,,0.895086593
1748245849588510423,-0.11,,,,0.8958568728
1748245849596213221,-0.206,,,,0.8966271526
1748245849603916019,-0.306,,,,0.8973974324
1748245849611618817,-0.267,,,,0.8981677122
1748245849619321615,-0.184,,,,0.898937992
1748245849627024481,-0.169,,,,0.8997082786
1748245849634727698,-0.171,,,,0.9004786003
1748245849642430915,-0.211,,,,0.901248922
1748245849650134132,-0.269,,,,0.9020192437
1748245849657837349,-0.225,,,,0.9027895654
1748245849665540566,-0.144,,,,0.9035598871
1748245849673243783,-0.169,,,,0.9043302088
1748245849680947000,-0.228,,,,0.9051005305
1748245849688650217,-0.223,,,,0.9058708522
1748245849696353434,-0.181,,,,0.9066411739
1748245849704056651,-0.188,,,,0.9074114956
1748245849711759868,-0.23,,,,0.9081818173
1748245849719463085,-0.215,,,,0.908952139
1748245849727166302,-0.203,,,,0.9097224607
1748245849734869519,-0.215,,,,0.9104927824
1748245849742572736,-0.157,,,,0.9112631041
1748245849750275953,-0.127,,,,0.9120334258
1748245849757979170,-0.211,,,,0.9128037475
1748245849765682387,-0.289,,,,0.9135740692
1748245849773385604,-0.255,,,,0.9143443909
1748245849781088821,-0.193,,,,0.9151147126
1748245849788792038,-0.213,,,,0.9158850343
1748245849796495255,-0.203,,,,0.916655356
1748245849804198472,-0.193,,,,0.9174256777
1748245849811901689,-0.282,,,,0.9181959994
1748245849819604906,-0.279,,,,0.9189663211
1748245849827308123,-0.171,,,,0.9197366428
1748245849835011340,-0.046,,,,0.9205069645
1748245849842714557,0.198,,,,0.9212772862
1748245849850417774,0.314,,,,0.9220476079
1748245849858120991,-0.13,,,,0.9228179296
1748245849865824208,-0.66,,,,0.9235882513
1748245849873527425,-0.547,,,,0.924358573
1748245849881230642,-0.201,,,,0.9251288947
1748245849888933859,-0.23,,,,0.9258992164
1748245849896637076,-0.348,,,,0.9266695381
1748245849904340293,-0.245,,,,0.9274398598
1748245849912043510,-0.11,,,,0.9282101815
1748245849919746727,-0.134,,,,0.9289805032
1748245849927449944,-0.233,,,,0.9297508249
1748245849935153161,-0.272,,,,0.9305211466
1748245849942856378,-0.238,,,,0.9312914683
1748245849950559595,-0.218,,,,0.93206179
1748245849958262812,-0.252,,,,0.9328321117
1748245849965966029,-0.225,,,,0.9336024334
1748245849973669246,-0.103,,,,0.9343727551
1748245849981372463,-0.122,,,,0.9351430768
1748245849989075680,-0.252,,,,0.9359133985
1748245849996778897,-0.211,,,,0.9366837202
1748245850004482114,-0.181,,,,0.9374540419
1748245850012185331,-0.238,,,,0.9382243636
1748245850019888548,-0.08,,,,0.9389946853
1748245850027591765,0.0,,,,0.939765007
1748245850035294982,-0.166,,,,0.9405353287
1748245850042998199,-0.13,,,,0.9413056504
1748245850050701416,0.012,,,,0.9420759721
1748245850058404633,-0.051,,,,0.9428462938
1748245850066107850,-0.107,,,,0.9436166155
1748245850073811067,-0.049,,,,0.9443869372
1748245850081514284,-0.071,,,,0.9451572589
1748245850089217501,-0.152,,,,0.9459275806
1748245850096920718,-0.198,,,,0.9466979023
1748245850104623935,-0.169,,,,0.947468224
1748245850112327152,-0.061,,,,0.9482385457
1748245850120030369,-0.076,,,,0.9490088674
1748245850127733586,-0.218,,,,0.9497791891
1748245850135436803,-0.279,,,,0.9505495108
1748245850143140020,-0.174,,,,0.9513198325
1748245850150843237,-0.051,,,,0.9520901542
1748245850158546454,-0.105,,,,0.9528604759
1748245850166249671,-0.191,,,,0.9536307976
1748245850173952888,-0.191,,,,0.9544011193
1748245850181656105,-0.137,,,,0.955171441
1748245850189359325,-0.078,93.0,611.0,,0.955941763
1748245850197062123,-0.13,,594.0,,0.9567120428
1748245850204764921,-0.196,,,,0.9574823226
1748245850212467719,-0.184,,,,0.9582526024
1748245850220170517,-0.159,,,,0.9590228822
1748245850227873315,-0.137,,,,0.959793162
1748245850235576113,-0.152,,,,0.9605634418
1748245850243278911,-0.203,,,,0.9613337216
1748245850250981709,-0.164,,,,0.9621040014
1748245850258684507,-0.09,,,,0.9628742812
1748245850266387305,-0.164,,,,0.963644561
1748245850274090103,-0.277,,,,0.9644148408
1748245850281792901,-0.225,,,,0.9651851206
1748245850289495699,-0.103,,,,0.9659554004
1748245850297198497,-0.137,,,,0.9667256802
1748245850304901295,-0.225,,,,0.96749596
1748245850312604093,-0.176,,,,0.9682662398
1748245850320306891,-0.13,,,,0.9690365196
1748245850328009689,-0.193,,,,0.9698067994
1748245850335712487,-0.213,,,,0.9705770792
1748245850343415285,-0.179,,,,0.971347359
1748245850351118083,-0.142,,,,0.9721176388
1748245850358820881,-0.12,,,,0.9728879186
1748245850366523679,-0.203,,,,0.9736581984
1748245850374226477,-0.269,,,,0.9744284782
1748245850381929275,-0.186,,,,0.975198758
1748245850389632073,-0.122,,,,0.9759690378
1748245850397334871,-0.188,,,,0.9767393176
1748245850405037669,-0.269,,,,0.9775095974
1748245850412740467,-0.247,,,,0.9782798772
1748245850420443265,-0.208,,,,0.979050157
1748245850428146063,-0.085,,,,0.9798204368
1748245850435848861,0.242,,,,0.9805907166
1748245850443551659,0.328,,,,0.9813609964
1748245850451254457,-0.186,,,,0.9821312762
1748245850458957255,-0.637,,,,0.982901556
1748245850466660053,-0.456,,,,0.9836718358
1748245850474362851,-0.203,,,,0.9844421156
1748245850482065649,-0.269,,,,0.9852123954
1748245850489768447,-0.331,,,,0.9859826752
1748245850497471245,-0.264,,,,0.986752955
1748245850505174043,-0.218,,,,0.9875232348
1748245850512876841,-0.193,,,,0.9882935146
1748245850520579639,-0.186,,,,0.9890637944
1748245850528282437,-0.245,,,,0.9898340742
1748245850535985235,-0.247,,,,0.990604354
1748245850543688033,-0.171,,,,0.9913746338
1748245850551390831,-0.159,,,,0.9921449136
1748245850559093629,-0.25,,,,0.9929151934
1748245850566796427,-0.314,,,,0.9936854732
1748245850574499225,-0.186,,,,0.994455753
1748245850582202023,-0.083,,,,0.9952260328
1748245850589904821,-0.22,,,,0.9959963126
1748245850597607619,-0.242,,,,0.9967665924
1748245850605310417,-0.098,,,,0.9975368722
1748245850613013215,-0.117,,,,0.998307152
1748245850620716013,-0.176,,,,0.9990774318
1748245850628418811,-0.149,,,,0.9998477116
1748245850636121609,-0.132,,,,1.0006179914
1748245850643824407,-0.095,,,,1.0013882712
1748245850651527205,-0.08,,,,1.002158551
1748245850659230003,-0.083,,,,1.0029288308
1748245850666932801,-0.083,,,,1.0036991106
1748245850674635599,-0.152,,,,1.0044693904
1748245850682338397,-0.186,,,,1.0052396702
1748245850690041195,-0.164,,,,1.00600995
1748245850697743993,-0.144,,,,1.0067802298
1748245850705446791,-0.105,,,,1.0075505096
1748245850713149589,-0.127,,,,1.0083207894
1748245850720852387,-0.245,,,,1.0090910692
1748245850728555185,-0.321,,,,1.009861349
1748245850736257983,-0.233,,,,1.0106316288
1748245850743960781,-0.13,,,,1.0114019086
1748245850751663647,-0.171,,,,1.0121721952
1748245850759366585,-0.238,,,,1.012942489
1748245850767069523,-0.277,,,,1.0137127828
1748245850774772461,-0.333,,,,1.0144830766
1748245850782475399,-0.242,,,,1.0152533704
1748245850790178337,-0.08,,,,1.0160236642
1748245850797881275,-0.161,,,,1.016793958
1748245850805584213,-0.301,,,,1.0175642518
1748245850813287151,-0.233,,,,1.0183345456
1748245850820990089,-0.157,,,,1.0191048394
1748245850828693027,-0.198,,,,1.0198751332
1748245850836395965,-0.269,,,,1.020645427
1748245850844098903,-0.36,,,,1.0214157208
1748245850851801841,-0.306,,,,1.0221860146
1748245850859504779,-0.078,,,,1.0229563084
1748245850867207717,-0.11,,,,1.0237266022
1748245850874910655,-0.353,,,,1.024496896
1748245850882613593,-0.299,,,,1.0252671898
1748245850890316531,-0.134,,,,1.0260374836
1748245850898019469,-0.22,,,,1.0268077774
1748245850905722407,-0.306,,,,1.0275780712
1748245850913425345,-0.279,,,,1.028348365
1748245850921128283,-0.289,,,,1.0291186588
1748245850928831221,-0.267,,,,1.0298889526
1748245850936534159,-0.157,,,,1.0306592464
1748245850944237097,-0.127,,,,1.0314295402
1748245850951940035,-0.169,,,,1.032199834
1748245850959642973,-0.211,,,,1.0329701278
1748245850967345911,-0.291,,,,1.0337404216
1748245850975048849,-0.299,,,,1.0345107154
1748245850982751787,-0.238,,,,1.0352810092
1748245850990454725,-0.252,,,,1.036051303
1748245850998157663,-0.291,,,,1.0368215968
1748245851005860601,-0.287,,,,1.0375918906
1748245851013563539,-0.277,,,,1.0383621844
1748245851021266477,-0.277,,,,1.0391324782
1748245851028969415,-0.252,,,,1.039902772
1748245851036672353,-0.117,,,,1.0406730658
1748245851044375291,0.149,,,,1.0414433596
1748245851052078229,0.296,,,,1.0422136534
1748245851059781167,-0.09,,,,1.0429839472
1748245851067484105,-0.704,,,,1.043754241
1748245851075187043,-0.7010000000000001,,,,1.0445245348
1748245851082889981,-0.368,,,,1.0452948286
1748245851090592919,-0.353,,,,1.0460651224
1748245851098295857,-0.353,,,,1.0468354162
1748245851105998795,-0.24,,,,1.04760571
1748245851113701733,-0.262,,,,1.0483760038
1748245851121404671,-0.291,,,,1.0491462976
1748245851129107609,-0.255,,,,1.0499165914
1748245851136810547,-0.289,,,,1.0506868852
1748245851144513485,-0.331,,,,1.051457179
1748245851152216423,-0.289,,,,1.0522274728
1748245851159919361,-0.287,,,,1.0529977666
1748245851167622299,-0.331,,,,1.0537680604
1748245851175325237,-0.282,,,,1.0545383542
1748245851183028175,-0.225,,,,1.055308648
1748245851190731113,-0.252,,,,1.0560789418
1748245851198434051,-0.228,,,,1.0568492356
1748245851206136989,-0.181,,,,1.0576195294
1748245851213839927,-0.247,,,,1.0583898232
1748245851221542865,-0.304,,,,1.059160117
1748245851229245803,-0.23,,,,1.0599304108
1748245851236948741,-0.186,,,,1.0607007046
1748245851244651679,-0.225,,,,1.0614709984
1748245851252354617,-0.223,,,,1.0622412922
1748245851260057555,-0.191,,,,1.063011586
1748245851267760493,-0.198,,,,1.0637818798
1748245851275463431,-0.218,,,,1.0645521736
1748245851283166369,-0.191,,,,1.0653224674
1748245851290869307,-0.154,,,,1.0660927612
1748245851298572245,-0.137,,,,1.066863055
1748245851306275183,-0.215,,,,1.0676333488
1748245851313978143,-0.377,95.0,578.0,,1.0684036448
1748245851321681011,-0.375,,580.0,,1.0691739316
1748245851329383879,-0.274,,,,1.0699442184
1748245851337086747,-0.316,,,,1.0707145052
1748245851344789615,-0.365,,,,1.071484792
1748245851352492483,-0.338,,,,1.0722550788
1748245851360195351,-0.279,,,,1.0730253656
1748245851367898219,-0.264,,,,1.0737956524
1748245851375601087,-0.409,,,,1.0745659392
1748245851383303955,-0.439,,,,1.075336226
1748245851391006823,-0.264,,,,1.0761065128
1748245851398709691,-0.26,,,,1.0768767996
1748245851406412559,-0.343,,,,1.0776470864
1748245851414115427,-0.291,,,,1.0784173732
1748245851421818295,-0.262,,,,1.07918766
1748245851429521163,-0.304,,,,1.0799579468
1748245851437224031,-0.296,,,,1.0807282336
1748245851444926899,-0.318,,,,1.0814985204
1748245851452629767,-0.358,,,,1.0822688072
1748245851460332635,-0.284,,,,1.083039094
1748245851468035503,-0.25,,,,1.0838093808
1748245851475738371,-0.328,,,,1.0845796676
1748245851483441239,-0.299,,,,1.0853499544
1748245851491144107,-0.218,,,,1.0861202412
1748245851498846975,-0.274,,,,1.086890528
1748245851506549843,-0.306,,,,1.0876608148
1748245851514252711,-0.245,,,,1.0884311016
1748245851521955579,-0.24,,,,1.0892013884
1748245851529658447,-0.274,,,,1.0899716752
1748245851537361315,-0.26,,,,1.090741962
1748245851545064183,-0.233,,,,1.0915122488
1748245851552767051,-0.245,,,,1.0922825356
1748245851560469919,-0.267,,,,1.0930528224
1748245851568172787,-0.284,,,,1.0938231092
1748245851575875655,-0.267,,,,1.094593396
1748245851583578523,-0.238,,,,1.0953636828
1748245851591281391,-0.238,,,,1.0961339696
1748245851598984259,-0.25,,,,1.0969042564
1748245851606687127,-0.25,,,,1.0976745432
1748245851614389995,-0.245,,,,1.09844483
1748245851622092863,-0.206,,,,1.0992151168
1748245851629795731,-0.076,,,,1.0999854036
1748245851637498599,0.139,,,,1.1007556904
1748245851645201467,0.198,,,,1.1015259772
1748245851652904335,-0.186,,,,1.102296264
1748245851660607203,-0.662,,,,1.1030665508
1748245851668310071,-0.623,,,,1.1038368376
1748245851676012939,-0.309,,,,1.1046071244
1748245851683715807,-0.223,,,,1.1053774112
1748245851691418675,-0.24,,,,1.106147698
1748245851699121543,-0.26,,,,1.1069179848
1748245851706824411,-0.284,,,,1.1076882716
1748245851714527279,-0.208,,,,1.1084585584
1748245851722230147,-0.208,,,,1.1092288452
1748245851729933015,-0.282,,,,1.109999132
1748245851737635883,-0.238,,,,1.1107694188
1748245851745338751,-0.203,,,,1.1115397056
1748245851753041619,-0.245,,,,1.1123099924
1748245851760744487,-0.238,,,,1.1130802792
1748245851768447355,-0.211,,,,1.113850566
1748245851776150223,-0.213,,,,1.1146208528
1748245851783853091,-0.174,,,,1.1153911396
1748245851791555959,-0.13,,,,1.1161614264
1748245851799258827,-0.186,,,,1.1169317132
1748245851806961695,-0.223,,,,1.117702
1748245851814664563,-0.154,,,,1.1184722868
1748245851822367431,-0.11,,,,1.1192425736
1748245851830070299,-0.115,,,,1.1200128604
1748245851837773167,-0.093,,,,1.1207831472
1748245851845476035,-0.061,,,,1.121553434
1748245851853178903,-0.093,,,,1.1223237208
1748245851860881771,-0.12,,,,1.1230940076
1748245851868584639,-0.034,,,,1.1238642944
1748245851876287552,-0.002,97.0,592.0,,1.1246345857
1748245851883990420,-0.112,,,,1.1254048725
1748245851891693288,-0.179,,,,1.1261751593
1748245851899396156,-0.159,,,,1.1269454461
1748245851907099024,-0.154,,,,1.1277157329
1748245851914801892,-0.157,,,,1.1284860197
1748245851922504760,-0.169,,,,1.1292563065
1748245851930207628,-0.169,,,,1.1300265933
1748245851937910496,-0.166,,,,1.1307968801
1748245851945613364,-0.213,,,,1.1315671669
1748245851953316232,-0.225,,,,1.1323374537
1748245851961019100,-0.201,,,,1.1331077405
1748245851968721968,-0.198,,,,1.1338780273
1748245851976424836,-0.169,,,,1.1346483141
1748245851984127704,-0.142,,,,1.1354186009
1748245851991830572,-0.161,,,,1.1361888877
1748245851999533440,-0.164,,,,1.1369591745
1748245852007236308,-0.184,,,,1.1377294613
1748245852014939176,-0.238,,,,1.1384997481
1748245852022642044,-0.184,,,,1.1392700349
1748245852030344912,-0.09,,,,1.1400403217
1748245852038047780,-0.107,,,,1.1408106085
1748245852045750648,-0.191,,,,1.1415808953
1748245852053453516,-0.257,,,,1.1423511821
1748245852061156384,-0.247,,,,1.1431214689
1748245852068859252,-0.206,,,,1.1438917557
1748245852076562120,-0.176,,,,1.1446620425
1748245852084264988,-0.112,,,,1.1454323293
1748245852091967856,-0.073,,,,1.1462026161
1748245852099670724,-0.184,,,,1.1469729029
1748245852107373592,-0.282,,,,1.1477431897
1748245852115076460,-0.252,,,,1.1485134765
1748245852122779328,-0.201,,,,1.1492837633
1748245852130482196,-0.157,,,,1.1500540501
1748245852138185064,-0.191,,,,1.1508243369
1748245852145887932,-0.233,,,,1.1515946237
1748245852153590800,-0.157,,,,1.1523649105
1748245852161293668,-0.093,,,,1.1531351973
1748245852168996536,-0.095,,,,1.1539054841
1748245852176699404,-0.176,,,,1.1546757709
1748245852184402272,-0.255,,,,1.1554460577
1748245852192105140,-0.22,,,,1.1562163445
1748245852199808008,-0.181,,,,1.1569866313
1748245852207510876,-0.161,,,,1.1577569181
1748245852215213744,-0.164,,,,1.1585272049
1748245852222916612,-0.211,,,,1.1592974917
1748245852230619480,-0.191,,,,1.1600677785
1748245852238322348,-0.11,,,,1.1608380653
1748245852246025216,0.024,,,,1.1616083521
1748245852253728084,0.277,,,,1.1623786389
1748245852261430952,0.314,,,,1.1631489257
1748245852269133820,-0.22,,,,1.1639192125
1748245852276836688,-0.672,,,,1.1646894993
1748245852284539556,-0.461,,,,1.1654597861
1748245852292242424,-0.23,,,,1.1662300729
1748245852299945292,-0.306,,,,1.1670003597
1748245852307648160,-0.255,,,,1.1677706465
1748245852315351028,-0.157,,,,1.1685409333
1748245852323053896,-0.206,,,,1.1693112201
1748245852330756764,-0.186,,,,1.1700815069
1748245852338459632,-0.127,,,,1.1708517937
1748245852346162500,-0.184,,,,1.1716220805
1748245852353865368,-0.203,,,,1.1723923673
1748245852361568236,-0.166,,,,1.1731626541
1748245852369271104,-0.186,,,,1.1739329409
1748245852376973972,-0.191,,,,1.1747032277
1748245852384676840,-0.159,,,,1.1754735145
1748245852392379708,-0.188,,,,1.1762438013
1748245852400082576,-0.193,,,,1.1770140881
1748245852407785444,-0.134,,,,1.1777843749
1748245852415488312,-0.122,,,,1.1785546617
1748245852423191180,-0.144,,,,1.1793249485
1748245852430894048,-0.11,,,,1.1800952353
1748245852438596961,-0.049,,,,1.1808655266
1748245852446299899,-0.036,,,,1.1816358204
1748245852454002837,-0.066,,,,1.1824061142
1748245852461705775,-0.085,,,,1.183176408
1748245852469408713,-0.049,,,,1.1839467018
1748245852477111651,-0.017,,,,1.1847169956
1748245852484814589,-0.105,,,,1.1854872894
1748245852492517527,-0.122,,,,1.1862575832
1748245852500220465,-0.004,,,,1.187027877
1748245852507923403,-0.019,,,,1.1877981708
1748245852515626341,-0.105,,,,1.1885684646
1748245852523329279,-0.115,,,,1.1893387584
1748245852531032217,-0.181,,,,1.1901090522
1748245852538735155,-0.196,,,,1.190879346
1748245852546438093,-0.107,,,,1.1916496398
1748245852554141031,-0.159,,,,1.1924199336
1748245852561843969,-0.203,,,,1.1931902274
1748245852569546907,-0.1,,,,1.1939605212
1748245852577249845,-0.122,,,,1.194730815
1748245852584952783,-0.264,,,,1.1955011088
1748245852592655721,-0.233,,,,1.1962714026
1748245852600358659,-0.09,,,,1.1970416964
1748245852608061597,-0.095,,,,1.1978119902
1748245852615764535,-0.191,,,,1.198582284
1748245852623467473,-0.164,,,,1.1993525778
1748245852631170411,-0.12,,,,1.2001228716
1748245852638873349,-0.179,,,,1.2008931654
1748245852646576287,-0.171,,,,1.2016634592
1748245852654279225,-0.127,,,,1.202433753
1748245852661982163,-0.174,,,,1.2032040468
1748245852669685101,-0.213,,,,1.2039743406
1748245852677388039,-0.201,,,,1.2047446344
1748245852685090977,-0.161,,,,1.2055149282
1748245852692793915,-0.132,,,,1.206285222
1748245852700496853,-0.157,,,,1.2070555158
1748245852708199791,-0.184,,,,1.2078258096
1748245852715902729,-0.188,,,,1.2085961034
1748245852723605667,-0.169,,,,1.2093663972
1748245852731308605,-0.139,,,,1.210136691
1748245852739011543,-0.179,,,,1.2109069848
1748245852746714481,-0.213,,,,1.2116772786
1748245852754417419,-0.171,,,,1.2124475724
1748245852762120357,-0.142,,,,1.2132178662
1748245852769823295,-0.154,,,,1.21398816
1748245852777526233,-0.161,,,,1.2147584538
1748245852785229171,-0.13,,,,1.2155287476
1748245852792932109,-0.105,,,,1.2162990414
1748245852800635047,-0.144,,,,1.2170693352
1748245852808337985,-0.196,,,,1.217839629
1748245852816040923,-0.191,,,,1.2186099228
1748245852823743861,-0.171,,,,1.2193802166
1748245852831446799,-0.201,,,,1.2201505104
1748245852839149737,-0.208,,,,1.2209208042
1748245852846852675,-0.144,,,,1.221691098
1748245852854555613,-0.107,,,,1.2224613918
1748245852862258551,-0.184,,,,1.2232316856
1748245852869961489,-0.093,,,,1.2240019794
1748245852877664427,0.269,,,,1.2247722732
1748245852885367365,0.409,,,,1.225542567
1748245852893070303,-0.049,,,,1.2263128608
1748245852900773241,-0.618,,,,1.2270831546
1748245852908476179,-0.556,,,,1.2278534484
1748245852916179117,-0.215,,,,1.2286237422
1748245852923882055,-0.206,,,,1.229394036
1748245852931584993,-0.267,,,,1.2301643298
1748245852939287931,-0.228,,,,1.2309346236
1748245852946990869,-0.215,,,,1.2317049174
1748245852954693807,-0.208,,,,1.2324752112
1748245852962396745,-0.215,,,,1.233245505
1748245852970099683,-0.206,,,,1.2340157988
1748245852977802621,-0.176,,,,1.2347860926
1748245852985505559,-0.24,,,,1.2355563864
1748245852993208497,-0.282,,,,1.2363266802
1748245853000911453,-0.149,98.0,610.0,,1.2370969758
1748245853008614251,-0.1,,592.0,,1.2378672556
1748245853016317049,-0.215,,,,1.2386375354
1748245853024019847,-0.24,,,,1.2394078152
1748245853031722645,-0.201,,,,1.240178095
1748245853039425443,-0.191,,,,1.2409483748
1748245853047128241,-0.127,,,,1.2417186546
1748245853054831039,-0.122,,,,1.2424889344
1748245853062533837,-0.215,,,,1.2432592142
1748245853070236635,-0.176,,,,1.244029494
1748245853077939433,-0.041,,,,1.2447997738
1748245853085642231,-0.08,,,,1.2455700536
1748245853093345029,-0.198,,,,1.2463403334
1748245853101047827,-0.137,,,,1.2471106132
1748245853108750625,-0.034,,,,1.247880893
1748245853116453423,-0.076,,,,1.2486511728
1748245853124156221,-0.208,,,,1.2494214526
1748245853131859019,-0.23,,,,1.2501917324
1748245853139561817,-0.13,,,,1.2509620122
1748245853147264615,-0.125,,,,1.251732292
1748245853154967413,-0.181,,,,1.2525025718
1748245853162670211,-0.233,,,,1.2532728516
1748245853170373009,-0.242,,,,1.2540431314
1748245853178075807,-0.213,,,,1.2548134112
1748245853185778605,-0.233,,,,1.255583691
1748245853193481403,-0.235,,,,1.2563539708
1748245853201184201,-0.25,,,,1.2571242506
1748245853208886999,-0.284,,,,1.2578945304
1748245853216589797,-0.267,,,,1.2586648102
1748245853224292595,-0.284,,,,1.25943509
1748245853231995393,-0.25,,,,1.2602053698
1748245853239698191,-0.174,,,,1.2609756496
1748245853247400989,-0.26,,,,1.2617459294
1748245853255103787,-0.341,,,,1.2625162092
1748245853262806585,-0.257,,,,1.263286489
1748245853270509383,-0.218,,,,1.2640567688
1748245853278212181,-0.269,,,,1.2648270486
1748245853285914979,-0.247,,,,1.2655973284
1748245853293617777,-0.206,,,,1.2663676082
1748245853301320575,-0.247,,,,1.267137888
1748245853309023373,-0.284,,,,1.2679081678
1748245853316726171,-0.289,,,,1.2686784476
1748245853324428969,-0.274,,,,1.2694487274
1748245853332131767,-0.269,,,,1.2702190072
1748245853339834565,-0.316,,,,1.270989287
1748245853347537363,-0.309,,,,1.2717595668
1748245853355240161,-0.235,,,,1.2725298466
1748245853362942959,-0.223,,,,1.2733001264
1748245853370645757,-0.289,,,,1.2740704062
1748245853378348555,-0.306,,,,1.274840686
1748245853386051353,-0.24,,,,1.2756109658
1748245853393754151,-0.215,,,,1.2763812456
1748245853401456949,-0.255,,,,1.2771515254
1748245853409159747,-0.242,,,,1.2779218052
1748245853416862545,-0.201,,,,1.278692085
1748245853424565343,-0.225,,,,1.2794623648
1748245853432268141,-0.277,,,,1.2802326446
1748245853439970939,-0.289,,,,1.2810029244
1748245853447673737,-0.264,,,,1.2817732042
1748245853455376535,-0.26,,,,1.282543484
1748245853463079333,-0.282,,,,1.2833137638
1748245853470782131,-0.279,,,,1.2840840436
1748245853478484929,-0.279,,,,1.2848543234
1748245853486187727,-0.26,,,,1.2856246032
1748245853493890525,-0.174,,,,1.286394883
1748245853501593323,0.029,,,,1.2871651628
1748245853509296121,0.267,,,,1.2879354426
1748245853516998919,0.112,,,,1.2887057224
1748245853524701717,-0.463,,,,1.2894760022
1748245853532404515,-0.743,,,,1.290246282
1748245853540107313,-0.48,,,,1.2910165618
1748245853547810111,-0.269,,,,1.2917868416
1748245853555512909,-0.306,,,,1.2925571214
1748245853563215775,-0.35,,,,1.293327408
1748245853570918643,-0.328,,,,1.2940976948
1748245853578621511,-0.257,,,,1.2948679816
1748245853586324379,-0.215,,,,1.2956382684
1748245853594027247,-0.255,,,,1.2964085552
1748245853601730115,-0.282,,,,1.297178842
1748245853609432983,-0.247,,,,1.2979491288
1748245853617135851,-0.235,,,,1.2987194156
1748245853624838719,-0.294,,,,1.2994897024
1748245853632541587,-0.289,,,,1.3002599892
1748245853640244455,-0.196,,,,1.301030276
1748245853647947323,-0.164,,,,1.3018005628
1748245853655650191,-0.218,,,,1.3025708496
1748245853663353059,-0.215,,,,1.3033411364
1748245853671055927,-0.149,,,,1.3041114232
1748245853678758795,-0.159,,,,1.30488171
1748245853686461663,-0.191,,,,1.3056519968
1748245853694164531,-0.137,,,,1.3064222836
1748245853701867399,-0.073,,,,1.3071925704
1748245853709570267,-0.095,,,,1.3079628572
1748245853717273135,-0.134,,,,1.308733144
1748245853724976003,-0.112,,,,1.3095034308
1748245853732678871,-0.095,,,,1.3102737176
1748245853740381739,-0.11,,,,1.3110440044
1748245853748084607,-0.093,,,,1.3118142912
1748245853755787475,-0.1,,,,1.312584578
1748245853763490343,-0.169,,,,1.3133548648
1748245853771193211,-0.203,,,,1.3141251516
1748245853778896079,-0.179,,,,1.3148954384
1748245853786598947,-0.176,,,,1.3156657252
1748245853794301815,-0.142,,,,1.316436012
1748245853802004683,-0.13,,,,1.3172062988
1748245853809707551,-0.225,,,,1.3179765856
1748245853817410419,-0.24,,,,1.3187468724
1748245853825113287,-0.169,,,,1.3195171592
1748245853832816155,-0.179,,,,1.320287446
1748245853840519023,-0.198,,,,1.3210577328
1748245853848221891,-0.171,,,,1.3218280196
1748245853855924759,-0.166,,,,1.3225983064
1748245853863627627,-0.176,,,,1.3233685932
1748245853871330495,-0.161,,,,1.32413888
1748245853879033363,-0.154,,,,1.3249091668
1748245853886736231,-0.142,,,,1.3256794536
1748245853894439099,-0.139,,,,1.3264497404
1748245853902141967,-0.164,,,,1.3272200272
1748245853909844835,-0.169,,,,1.327990314
1748245853917547703,-0.139,,,,1.3287606008
1748245853925250571,-0.137,,,,1.3295308876
1748245853932953439,-0.161,,,,1.3303011744
1748245853940656307,-0.188,,,,1.3310714612
1748245853948359175,-0.211,,,,1.331841748
1748245853956062043,-0.152,,,,1.3326120348
1748245853963764911,-0.085,,,,1.3333823216
1748245853971467779,-0.137,,,,1.3341526084
1748245853979170647,-0.186,,,,1.3349228952
1748245853986873515,-0.149,,,,1.335693182
1748245853994576383,-0.154,,,,1.3364634688
1748245854002279251,-0.208,,,,1.3372337556
1748245854009982119,-0.169,,,,1.3380040424
1748245854017684987,-0.085,,,,1.3387743292
1748245854025387855,-0.11,,,,1.339544616
1748245854033090723,-0.125,,,,1.3403149028
1748245854040793591,-0.044,,,,1.3410851896
1748245854048496459,-0.078,,,,1.3418554764
1748245854056199327,-0.211,,,,1.3426257632
1748245854063902195,-0.164,,,,1.34339605
1748245854071605063,-0.073,,,,1.3441663368
1748245854079307931,-0.176,,,,1.3449366236
1748245854087010799,-0.272,,,,1.3457069104
1748245854094713667,-0.191,,,,1.3464771972
1748245854102416535,-0.107,,,,1.347247484
1748245854110119403,-0.112,,,,1.3480177708
1748245854117822271,-0.066,,,,1.3487880576
1748245854125525188,0.152,99.0,615.0,,1.3495583493
1748245854133228056,0.36,,,,1.3503286361
1748245854140930924,0.186,,,,1.3510989229
1748245854148633792,-0.323,,,,1.3518692097
1748245854156336660,-0.554,,,,1.3526394965
1748245854164039528,-0.343,,,,1.3534097833
1748245854171742396,-0.188,,,,1.3541800701
1748245854179445264,-0.208,,,,1.3549503569
1748245854187148132,-0.196,,,,1.3557206437
1748245854194851000,-0.159,,,,1.3564909305
1748245854202553868,-0.154,,,,1.3572612173
1748245854210256736,-0.154,,,,1.3580315041
1748245854217959604,-0.127,,,,1.3588017909
1748245854225662472,-0.122,,,,1.3595720777
1748245854233365340,-0.152,,,,1.3603423645
1748245854241068208,-0.154,,,,1.3611126513
1748245854248771076,-0.152,,,,1.3618829381
1748245854256473944,-0.159,,,,1.3626532249
1748245854264176812,-0.137,,,,1.3634235117
1748245854271879680,-0.142,,,,1.3641937985
1748245854279582548,-0.142,,,,1.3649640853
1748245854287285416,-0.071,,,,1.3657343721
1748245854294988284,-0.056,,,,1.3665046589
1748245854302691152,-0.098,,,,1.3672749457
1748245854310394020,-0.073,,,,1.3680452325
1748245854318096888,-0.053,,,,1.3688155193
1748245854325799756,-0.034,,,,1.3695858061
1748245854333502624,-0.009,,,,1.3703560929
1748245854341205492,-0.076,,,,1.3711263797
1748245854348908360,-0.098,,,,1.3718966665
1748245854356611228,-0.002,,,,1.3726669533
1748245854364314096,0.004,,,,1.3734372401
1748245854372016964,-0.09,,,,1.3742075269
1748245854379719832,-0.093,,,,1.3749778137
1748245854387422700,-0.036,,,,1.3757481005
1748245854395125568,-0.056,,,,1.3765183873
1748245854402828436,-0.112,,,,1.3772886741
1748245854410531304,-0.137,,,,1.3780589609
1748245854418234172,-0.127,,,,1.3788292477
1748245854425937040,-0.134,,,,1.3795995345
1748245854433639908,-0.12,,,,1.3803698213
1748245854441342776,-0.1,,,,1.3811401081
1748245854449045644,-0.174,,,,1.3819103949
1748245854456748512,-0.206,,,,1.3826806817
1748245854464451380,-0.154,,,,1.3834509685
1748245854472154248,-0.157,,,,1.3842212553
1748245854479857116,-0.147,,,,1.3849915421
1748245854487559984,-0.083,,,,1.3857618289
1748245854495262852,-0.132,,,,1.3865321157
1748245854502965720,-0.235,,,,1.3873024025
1748245854510668588,-0.201,,,,1.3880726893
1748245854518371456,-0.164,,,,1.3888429761
1748245854526074324,-0.154,,,,1.3896132629
1748245854533777192,-0.098,,,,1.3903835497
1748245854541480060,-0.125,,,,1.3911538365
1748245854549182928,-0.152,,,,1.3919241233
1748245854556885796,-0.117,,,,1.3926944101
1748245854564588664,-0.164,,,,1.3934646969
1748245854572291532,-0.235,,,,1.3942349837
1748245854579994400,-0.215,,,,1.3950052705
1748245854587697268,-0.174,,,,1.3957755573
1748245854595400136,-0.188,,,,1.3965458441
1748245854603103004,-0.218,,,,1.3973161309
1748245854610805872,-0.176,,,,1.3980864177
1748245854618508740,-0.095,,,,1.3988567045
1748245854626211608,-0.139,,,,1.3996269913
1748245854633914476,-0.24,,,,1.4003972781
1748245854641617344,-0.203,,,,1.4011675649
1748245854649320212,-0.169,,,,1.4019378517
1748245854657023080,-0.238,,,,1.4027081385
1748245854664725948,-0.203,,,,1.4034784253
1748245854672428816,-0.1,,,,1.4042487121
1748245854680131684,-0.125,,,,1.4050189989
1748245854687834597,-0.164,,,,1.4057892902
1748245854695537674,-0.13,,,,1.4065595979
1748245854703240751,-0.137,,,,1.4073299056
1748245854710943828,-0.171,,,,1.4081002133
1748245854718646905,-0.206,,,,1.408870521
1748245854726349982,-0.233,,,,1.4096408287
1748245854734053059,-0.223,,,,1.4104111364
1748245854741756136,-0.203,,,,1.4111814441
1748245854749459213,-0.191,,,,1.4119517518
1748245854757162290,-0.171,,,,1.4127220595
1748245854764865367,-0.147,,,,1.4134923672
1748245854772568444,-0.044,,,,1.4142626749
1748245854780271521,0.164,,,,1.4150329826
1748245854787974598,0.25,,,,1.4158032903
1748245854795677675,-0.066,,,,1.416573598
1748245854803380752,-0.539,,,,1.4173439057
1748245854811083829,-0.5740000000000001,,,,1.4181142134
1748245854818786906,-0.279,,,,1.4188845211
1748245854826489983,-0.193,,,,1.4196548288
1748245854834193060,-0.252,,,,1.4204251365
1748245854841896137,-0.225,,,,1.4211954442
1748245854849599214,-0.201,,,,1.4219657519
1748245854857302291,-0.233,,,,1.4227360596
1748245854865005368,-0.24,,,,1.4235063673
1748245854872708445,-0.22,,,,1.424276675
1748245854880411522,-0.201,,,,1.4250469827
1748245854888114599,-0.196,,,,1.4258172904
1748245854895817676,-0.196,,,,1.4265875981
1748245854903520753,-0.191,,,,1.4273579058
1748245854911223830,-0.211,,,,1.4281282135
1748245854918926907,-0.208,,,,1.4288985212
1748245854926629984,-0.166,,,,1.4296688289
1748245854934333061,-0.181,,,,1.4304391366
1748245854942036138,-0.218,,,,1.4312094443
1748245854949739215,-0.147,,,,1.431979752
1748245854957442292,-0.036,,,,1.4327500597
1748245854965145369,-0.073,,,,1.4335203674
1748245854972848446,-0.203,,,,1.4342906751
1748245854980551523,-0.181,,,,1.4350609828
1748245854988254600,-0.063,,,,1.4358312905
1748245854995957677,-0.076,,,,1.4366015982
1748245855003660754,-0.117,,,,1.4373719059
1748245855011363831,-0.085,,,,1.4381422136
1748245855019066908,-0.076,,,,1.4389125213
1748245855026769985,-0.09,,,,1.439682829
1748245855034473062,-0.046,,,,1.4404531367
1748245855042176139,-0.058,,,,1.4412234444
1748245855049879216,-0.159,,,,1.4419937521
1748245855057582293,-0.154,,,,1.4427640598
1748245855065285370,-0.098,,,,1.4435343675
1748245855072988447,-0.149,,,,1.4443046752
1748245855080691524,-0.223,,,,1.4450749829
1748245855088394601,-0.203,,,,1.4458452906
1748245855096097678,-0.184,,,,1.4466155983
1748245855103800755,-0.198,,,,1.447385906
1748245855111503832,-0.147,,,,1.4481562137
1748245855119206909,-0.083,,,,1.4489265214
1748245855126909986,-0.112,,,,1.4496968291
1748245855134613063,-0.179,,,,1.4504671368
1748245855142316140,-0.193,,,,1.4512374445
1748245855150019217,-0.184,,,,1.4520077522
1748245855157722294,-0.176,,,,1.4527780599
1748245855165425371,-0.161,,,,1.4535483676
1748245855173128448,-0.188,,,,1.4543186753
1748245855180831525,-0.208,,,,1.455088983
1748245855188534602,-0.142,,,,1.4558592907
1748245855196237679,-0.11,,,,1.4566295984
1748245855203940756,-0.166,,,,1.4573999061
1748245855211643833,-0.179,,,,1.4581702138
1748245855219346910,-0.149,,,,1.4589405215
1748245855227049987,-0.154,,,,1.4597108292
1748245855234753064,-0.179,,,,1.4604811369
1748245855242456141,-0.208,,,,1.4612514446
1748245855250159263,-0.196,98.0,626.0,,1.4620217568
1748245855257862061,-0.166,,627.0,,1.4627920366
1748245855265564859,-0.191,,,,1.4635623164
1748245855273267657,-0.238,,,,1.4643325962
1748245855280970455,-0.238,,,,1.465102876
1748245855288673253,-0.188,,,,1.4658731558
1748245855296376051,-0.139,,,,1.4666434356
1748245855304078849,-0.159,,,,1.4674137154
1748245855311781647,-0.206,,,,1.4681839952
1748245855319484445,-0.193,,,,1.468954275
1748245855327187243,-0.164,,,,1.4697245548
1748245855334890041,-0.179,,,,1.4704948346
1748245855342592839,-0.188,,,,1.4712651144
1748245855350295637,-0.169,,,,1.4720353942
1748245855357998435,-0.174,,,,1.472805674
1748245855365701233,-0.196,,,,1.4735759538
1748245855373404031,-0.208,,,,1.4743462336
1748245855381106829,-0.191,,,,1.4751165134
1748245855388809627,-0.149,,,,1.4758867932
1748245855396512425,-0.149,,,,1.476657073
1748245855404215223,-0.191,,,,1.4774273528
1748245855411918021,-0.22,,,,1.4781976326
1748245855419620819,-0.196,,,,1.4789679124
1748245855427323617,-0.11,,,,1.4797381922
1748245855435026415,0.053,,,,1.480508472
1748245855442729213,0.225,,,,1.4812787518
1748245855450432011,0.11,,,,1.4820490316
1748245855458134809,-0.321,,,,1.4828193114
1748245855465837607,-0.539,,,,1.4835895912
1748245855473540405,-0.345,,,,1.484359871
1748245855481243203,-0.193,,,,1.4851301508
1748245855488946001,-0.238,,,,1.4859004306
1748245855496648799,-0.262,,,,1.4866707104
1748245855504351597,-0.26,,,,1.4874409902
1748245855512054395,-0.238,,,,1.48821127
1748245855519757193,-0.181,,,,1.4889815498
1748245855527459991,-0.184,,,,1.4897518296
1748245855535162789,-0.26,,,,1.4905221094
1748245855542865587,-0.282,,,,1.4912923892
1748245855550568385,-0.188,,,,1.492062669
1748245855558271183,-0.137,,,,1.4928329488
1748245855565973981,-0.203,,,,1.4936032286
1748245855573676779,-0.25,,,,1.4943735084
1748245855581379577,-0.22,,,,1.4951437882
1748245855589082375,-0.161,,,,1.495914068
1748245855596785173,-0.144,,,,1.4966843478
1748245855604487971,-0.157,,,,1.4974546276
1748245855612190769,-0.139,,,,1.4982249074
1748245855619893567,-0.154,,,,1.4989951872
1748245855627596365,-0.169,,,,1.499765467
1748245855635299163,-0.137,,,,1.5005357468
1748245855643001961,-0.1,,,,1.5013060266
1748245855650704759,-0.117,,,,1.5020763064
1748245855658407557,-0.154,,,,1.5028465862
1748245855666110355,-0.115,,,,1.503616866
1748245855673813153,-0.044,,,,1.5043871458
1748245855681515951,-0.083,,,,1.5051574256
1748245855689218749,-0.166,,,,1.5059277054
1748245855696921547,-0.149,,,,1.5066979852
1748245855704624345,-0.12,,,,1.507468265
1748245855712327143,-0.191,,,,1.5082385448
1748245855720029941,-0.223,,,,1.5090088246
1748245855727732739,-0.174,,,,1.5097791044
1748245855735435537,-0.159,,,,1.5105493842
1748245855743138335,-0.193,,,,1.511319664
1748245855750841133,-0.242,,,,1.5120899438
1748245855758543931,-0.255,,,,1.5128602236
1748245855766246729,-0.225,,,,1.5136305034
1748245855773949527,-0.228,,,,1.5144007832
1748245855781652325,-0.23,,,,1.515171063
1748245855789355123,-0.223,,,,1.5159413428
1748245855797057921,-0.233,,,,1.5167116226
1748245855804760719,-0.233,,,,1.5174819024
1748245855812463585,-0.213,,,,1.518252189
1748245855820166314,-0.191,,,,1.5190224619
1748245855827869043,-0.235,,,,1.5197927348
1748245855835571772,-0.299,,,,1.5205630077
1748245855843274501,-0.228,,,,1.5213332806
1748245855850977230,-0.179,,,,1.5221035535
1748245855858679959,-0.262,,,,1.5228738264
1748245855866382688,-0.264,,,,1.5236440993
1748245855874085417,-0.203,,,,1.5244143722
1748245855881788146,-0.213,,,,1.5251846451
1748245855889490875,-0.233,,,,1.525954918
1748245855897193604,-0.247,,,,1.5267251909
1748245855904896333,-0.252,,,,1.5274954638
1748245855912599062,-0.242,,,,1.5282657367
1748245855920301791,-0.272,,,,1.5290360096
1748245855928004520,-0.264,,,,1.5298062825
1748245855935707249,-0.213,,,,1.5305765554
1748245855943409978,-0.242,,,,1.5313468283
1748245855951112707,-0.262,,,,1.5321171012
1748245855958815436,-0.223,,,,1.5328873741
1748245855966518165,-0.24,,,,1.533657647
1748245855974220894,-0.25,,,,1.5344279199
1748245855981923623,-0.198,,,,1.5351981928
1748245855989626352,-0.171,,,,1.5359684657
1748245855997329081,-0.218,,,,1.5367387386
1748245856005031810,-0.274,,,,1.5375090115
1748245856012734539,-0.257,,,,1.5382792844
1748245856020437268,-0.242,,,,1.5390495573
1748245856028139997,-0.277,,,,1.5398198302
1748245856035842726,-0.247,,,,1.5405901031
1748245856043545455,-0.235,,,,1.541360376
1748245856051248184,-0.314,,,,1.5421306489
1748245856058950913,-0.306,,,,1.5429009218
1748245856066653642,-0.196,,,,1.5436711947
1748245856074356371,-0.034,,,,1.5444414676
1748245856082059100,0.191,,,,1.5452117405
1748245856089761829,0.179,,,,1.5459820134
1748245856097464558,-0.296,,,,1.5467522863
1748245856105167287,-0.6990000000000001,,,,1.5475225592
1748245856112870016,-0.5760000000000001,,,,1.5482928321
1748245856120572745,-0.321,,,,1.549063105
1748245856128275474,-0.242,,,,1.5498333779
1748245856135978203,-0.25,,,,1.5506036508
1748245856143680932,-0.345,,,,1.5513739237
1748245856151383661,-0.377,,,,1.5521441966
1748245856159086390,-0.23,,,,1.5529144695
1748245856166789119,-0.191,,,,1.5536847424
1748245856174491848,-0.272,,,,1.5544550153
1748245856182194577,-0.255,,,,1.5552252882
1748245856189897306,-0.284,,,,1.5559955611
1748245856197600035,-0.35,,,,1.556765834
1748245856205302764,-0.274,,,,1.5575361069
1748245856213005493,-0.225,,,,1.5583063798
1748245856220708222,-0.277,,,,1.5590766527
1748245856228410951,-0.26,,,,1.5598469256
1748245856236113680,-0.213,,,,1.5606171985
1748245856243816409,-0.181,,,,1.5613874714
1748245856251519138,-0.157,,,,1.5621577443
1748245856259221867,-0.206,,,,1.5629280172
1748245856266924596,-0.262,,,,1.5636982901
1748245856274627325,-0.23,,,,1.564468563
1748245856282330054,-0.176,,,,1.5652388359
1748245856290032783,-0.147,,,,1.5660091088
1748245856297735512,-0.152,,,,1.5667793817
1748245856305438241,-0.169,,,,1.5675496546
1748245856313140970,-0.149,,,,1.5683199275
1748245856320843699,-0.127,,,,1.5690902004
1748245856328546428,-0.12,,,,1.5698604733
1748245856336249157,-0.171,,,,1.5706307462
1748245856343951886,-0.269,,,,1.5714010191
1748245856351654615,-0.24,,,,1.572171292
1748245856359357344,-0.181,,,,1.5729415649
1748245856367060073,-0.262,,,,1.5737118378
1748245856374762824,-0.279,98.0,623.0,,1.5744821129
1748245856382465692,-0.184,,651.0,,1.5752523997
1748245856390168560,-0.218,,,,1.5760226865
1748245856397871428,-0.311,,,,1.5767929733
1748245856405574296,-0.272,,,,1.5775632601
1748245856413277164,-0.198,,,,1.5783335469
1748245856420980032,-0.22,,,,1.5791038337
1748245856428682900,-0.301,,,,1.5798741205
1748245856436385768,-0.279,,,,1.5806444073
1748245856444088636,-0.159,,,,1.5814146941
1748245856451791504,-0.181,,,,1.5821849809
1748245856459494372,-0.269,,,,1.5829552677
1748245856467197240,-0.238,,,,1.5837255545
1748245856474900108,-0.186,,,,1.5844958413
1748245856482602976,-0.174,,,,1.5852661281
1748245856490305844,-0.22,,,,1.5860364149
1748245856498008712,-0.284,,,,1.5868067017
1748245856505711580,-0.225,,,,1.5875769885
1748245856513414448,-0.127,,,,1.5883472753
1748245856521117316,-0.161,,,,1.5891175621
1748245856528820184,-0.201,,,,1.5898878489
1748245856536523052,-0.198,,,,1.5906581357
1748245856544225920,-0.242,,,,1.5914284225
1748245856551928788,-0.242,,,,1.5921987093
1748245856559631656,-0.186,,,,1.5929689961
1748245856567334524,-0.193,,,,1.5937392829
1748245856575037392,-0.218,,,,1.5945095697
1748245856582740260,-0.176,,,,1.5952798565
1748245856590443128,-0.132,,,,1.5960501433
1748245856598145996,-0.149,,,,1.5968204301
1748245856605848864,-0.188,,,,1.5975907169
1748245856613551732,-0.191,,,,1.5983610037
1748245856621254600,-0.174,,,,1.5991312905
1748245856628957468,-0.184,,,,1.5999015773
1748245856636660336,-0.213,,,,1.6006718641
1748245856644363204,-0.208,,,,1.6014421509
1748245856652066072,-0.184,,,,1.6022124377
1748245856659768940,-0.179,,,,1.6029827245
1748245856667471808,-0.211,,,,1.6037530113
1748245856675174676,-0.208,,,,1.6045232981
1748245856682877544,-0.095,,,,1.6052935849
1748245856690580412,0.063,,,,1.6060638717
1748245856698283280,0.228,,,,1.6068341585
1748245856705986148,0.213,,,,1.6076044453
1748245856713689016,-0.213,,,,1.6083747321
1748245856721391884,-0.581,,,,1.6091450189
1748245856729094752,-0.453,,,,1.6099153057
1748245856736797620,-0.233,,,,1.6106855925
1748245856744500488,-0.208,,,,1.6114558793
1748245856752203356,-0.198,,,,1.6122261661
1748245856759906224,-0.174,,,,1.6129964529
1748245856767609092,-0.233,,,,1.6137667397
1748245856775311960,-0.245,,,,1.6145370265
1748245856783014828,-0.159,,,,1.6153073133
1748245856790717696,-0.166,,,,1.6160776001
1748245856798420564,-0.203,,,,1.6168478869
1748245856806123432,-0.152,,,,1.6176181737
1748245856813826300,-0.132,,,,1.6183884605
1748245856821529168,-0.176,,,,1.6191587473
1748245856829232036,-0.211,,,,1.6199290341
1748245856836934904,-0.211,,,,1.6206993209
1748245856844637772,-0.152,,,,1.6214696077
1748245856852340640,-0.073,,,,1.6222398945
1748245856860043508,-0.083,,,,1.6230101813
1748245856867746376,-0.166,,,,1.6237804681
1748245856875449244,-0.164,,,,1.6245507549
1748245856883152112,-0.085,,,,1.6253210417
1748245856890854980,-0.053,,,,1.6260913285
1748245856898557848,-0.026,,,,1.6268616153
1748245856906260716,0.004,,,,1.6276319021
1748245856913963584,-0.039,,,,1.6284021889
1748245856921666452,-0.107,,,,1.6291724757
1748245856929369320,-0.083,,,,1.6299427625
1748245856937072233,-0.024,97.0,658.0,,1.6307130538
1748245856944775031,-0.036,,,,1.6314833336
1748245856952477829,-0.08,,,,1.6322536134
1748245856960180627,-0.115,,,,1.6330238932
1748245856967883425,-0.147,,,,1.633794173
1748245856975586223,-0.132,,,,1.6345644528
1748245856983289021,-0.103,,,,1.6353347326
1748245856990991819,-0.125,,,,1.6361050124
1748245856998694617,-0.107,,,,1.6368752922
1748245857006397415,-0.09,,,,1.637645572
1748245857014100213,-0.184,,,,1.6384158518
1748245857021803011,-0.211,,,,1.6391861316
1748245857029505809,-0.127,,,,1.6399564114
1748245857037208607,-0.13,,,,1.6407266912
1748245857044911405,-0.147,,,,1.641496971
1748245857052614203,-0.115,,,,1.6422672508
1748245857060317001,-0.144,,,,1.6430375306
1748245857068019799,-0.154,,,,1.6438078104
1748245857075722597,-0.127,,,,1.6445780902
1748245857083425395,-0.137,,,,1.64534837
1748245857091128193,-0.147,,,,1.6461186498
1748245857098830991,-0.147,,,,1.6468889296
1748245857106533789,-0.13,,,,1.6476592094
1748245857114236587,-0.115,,,,1.6484294892
1748245857121939385,-0.139,,,,1.649199769
1748245857129642183,-0.166,,,,1.6499700488
1748245857137344981,-0.159,,,,1.6507403286
1748245857145047779,-0.154,,,,1.6515106084
1748245857152750577,-0.166,,,,1.6522808882
1748245857160453375,-0.169,,,,1.653051168
1748245857168156173,-0.152,,,,1.6538214478
1748245857175858971,-0.139,,,,1.6545917276
1748245857183561769,-0.144,,,,1.6553620074
1748245857191264567,-0.154,,,,1.6561322872
1748245857198967365,-0.132,,,,1.656902567
1748245857206670163,-0.098,,,,1.6576728468
1748245857214372961,-0.132,,,,1.6584431266
1748245857222075759,-0.147,,,,1.6592134064
1748245857229778557,-0.058,,,,1.6599836862
1748245857237481355,-0.1,,,,1.660753966
1748245857245184153,-0.257,,,,1.6615242458
1748245857252886951,-0.25,,,,1.6622945256
1748245857260589749,-0.171,,,,1.6630648054
1748245857268292547,-0.157,,,,1.6638350852
1748245857275995345,-0.161,,,,1.664605365
1748245857283698143,-0.198,,,,1.6653756448
1748245857291400941,-0.211,,,,1.6661459246
1748245857299103739,-0.149,,,,1.6669162044
1748245857306806537,-0.044,,,,1.6676864842
1748245857314509335,0.186,,,,1.668456764
1748245857322212133,0.355,,,,1.6692270438
1748245857329914931,-0.017,,,,1.6699973236
1748245857337617729,-0.579,,,,1.6707676034
1748245857345320527,-0.534,,,,1.6715378832
1748245857353023325,-0.211,,,,1.672308163
1748245857360726123,-0.186,,,,1.6730784428
1748245857368428921,-0.267,,,,1.6738487226
1748245857376131719,-0.26,,,,1.6746190024
1748245857383834517,-0.218,,,,1.6753892822
1748245857391537315,-0.184,,,,1.676159562
1748245857399240113,-0.171,,,,1.6769298418
1748245857406942911,-0.166,,,,1.6777001216
1748245857414645709,-0.213,,,,1.6784704014
1748245857422348507,-0.267,,,,1.6792406812
1748245857430051305,-0.235,,,,1.680010961
1748245857437754103,-0.161,,,,1.6807812408
1748245857445456901,-0.142,,,,1.6815515206
1748245857453159699,-0.186,,,,1.6823218004
1748245857460862497,-0.181,,,,1.6830920802
1748245857468565295,-0.147,,,,1.68386236
1748245857476268093,-0.154,,,,1.6846326398
1748245857483970891,-0.134,,,,1.6854029196
1748245857491673689,-0.112,,,,1.6861731994
1748245857499376555,-0.147,,,,1.686943486
1748245857507079353,-0.132,,,,1.6877137658
1748245857514782151,-0.088,,,,1.6884840456
1748245857522484949,-0.071,,,,1.6892543254
1748245857530187747,-0.026,,,,1.6900246052
1748245857537890545,-0.041,,,,1.690794885
1748245857545593343,-0.11,,,,1.6915651648
1748245857553296141,-0.095,,,,1.6923354446
1748245857560998939,-0.049,,,,1.6931057244
1748245857568701737,-0.063,,,,1.6938760042
1748245857576404535,-0.125,,,,1.694646284
1748245857584107333,-0.169,,,,1.6954165638
1748245857591810131,-0.147,,,,1.6961868436
1748245857599512929,-0.088,,,,1.6969571234
1748245857607215727,-0.066,,,,1.6977274032
1748245857614918525,-0.176,,,,1.698497683
1748245857622621323,-0.282,,,,1.6992679628
1748245857630324121,-0.191,,,,1.7000382426
1748245857638026919,-0.134,,,,1.7008085224
1748245857645729717,-0.184,,,,1.7015788022
1748245857653432515,-0.164,,,,1.702349082
1748245857661135313,-0.149,,,,1.7031193618
1748245857668838111,-0.174,,,,1.7038896416
1748245857676540909,-0.154,,,,1.7046599214
1748245857684243707,-0.11,,,,1.7054302012
1748245857691946505,-0.122,,,,1.706200481
1748245857699649303,-0.22,,,,1.7069707608
1748245857707352101,-0.235,,,,1.7077410406
1748245857715054899,-0.139,,,,1.7085113204
1748245857722757697,-0.154,,,,1.7092816002
1748245857730460495,-0.203,,,,1.71005188
1748245857738163293,-0.193,,,,1.7108221598
1748245857745866091,-0.201,,,,1.7115924396
1748245857753568889,-0.193,,,,1.7123627194
1748245857761271687,-0.179,,,,1.7131329992
1748245857768974485,-0.171,,,,1.713903279
1748245857776677283,-0.171,,,,1.7146735588
1748245857784380081,-0.228,,,,1.7154438386
1748245857792082879,-0.264,,,,1.7162141184
1748245857799785677,-0.213,,,,1.7169843982
1748245857807488475,-0.188,,,,1.717754678
1748245857815191273,-0.213,,,,1.7185249578
1748245857822894071,-0.198,,,,1.7192952376
1748245857830596869,-0.181,,,,1.7200655174
1748245857838299667,-0.206,,,,1.7208357972
1748245857846002465,-0.218,,,,1.721606077
1748245857853705263,-0.215,,,,1.7223763568
1748245857861408061,-0.215,,,,1.7231466366
1748245857869110859,-0.235,,,,1.7239169164
1748245857876813657,-0.289,,,,1.7246871962
1748245857884516455,-0.318,,,,1.725457476
1748245857892219253,-0.242,,,,1.7262277558
1748245857899922051,-0.169,,,,1.7269980356
1748245857907624849,-0.201,,,,1.7277683154
1748245857915327647,-0.223,,,,1.7285385952
1748245857923030445,-0.088,,,,1.729308875
1748245857930733243,0.13,,,,1.7300791548
1748245857938436041,0.198,,,,1.7308494346
1748245857946138839,-0.078,,,,1.7316197144
1748245857953841637,-0.5760000000000001,,,,1.7323899942
1748245857961544435,-0.652,,,,1.733160274
1748245857969247233,-0.274,,,,1.7339305538
1748245857976950031,-0.206,,,,1.7347008336
1748245857984652829,-0.402,,,,1.7354711134
1748245857992355627,-0.355,,,,1.7362413932
1748245858000058425,-0.235,,,,1.737011673
1748245858007761223,-0.176,,,,1.7377819528
1748245858015464021,-0.161,,,,1.7385522326
1748245858023166819,-0.318,,,,1.7393225124
1748245858030869617,-0.382,,,,1.7400927922
1748245858038572415,-0.208,,,,1.740863072
1748245858046275213,-0.107,,,,1.7416333518
1748245858053978011,-0.233,,,,1.7424036316
1748245858061680877,-0.35,95.0,642.0,,1.7431739182
1748245858069383675,-0.255,,616.0,,1.743944198
1748245858077086473,-0.184,,,,1.7447144778
1748245858084789271,-0.213,,,,1.7454847576
1748245858092492069,-0.176,,,,1.7462550374
1748245858100194867,-0.211,,,,1.7470253172
1748245858107897665,-0.269,,,,1.747795597
1748245858115600463,-0.139,,,,1.7485658768
1748245858123303261,-0.068,,,,1.7493361566
1748245858131006059,-0.154,,,,1.7501064364
1748245858138708857,-0.137,,,,1.7508767162
1748245858146411655,-0.122,,,,1.751646996
1748245858154114453,-0.166,,,,1.7524172758
1748245858161817251,-0.107,,,,1.7531875556
1748245858169520049,-0.044,,,,1.7539578354
1748245858177222847,-0.1,,,,1.7547281152
1748245858184925645,-0.166,,,,1.755498395
1748245858192628443,-0.149,,,,1.7562686748
1748245858200331241,-0.117,,,,1.7570389546
1748245858208034039,-0.134,,,,1.7578092344
1748245858215736837,-0.171,,,,1.7585795142
1748245858223439635,-0.188,,,,1.759349794
1748245858231142433,-0.164,,,,1.7601200738
1748245858238845231,-0.174,,,,1.7608903536
1748245858246548029,-0.188,,,,1.7616606334
1748245858254250827,-0.152,,,,1.7624309132
1748245858261953625,-0.191,,,,1.763201193
1748245858269656423,-0.277,,,,1.7639714728
1748245858277359221,-0.238,,,,1.7647417526
1748245858285062019,-0.125,,,,1.7655120324
1748245858292764817,-0.12,,,,1.7662823122
1748245858300467615,-0.196,,,,1.767052592
1748245858308170413,-0.215,,,,1.7678228718
1748245858315873211,-0.161,,,,1.7685931516
1748245858323576009,-0.1,,,,1.7693634314
1748245858331278807,-0.149,,,,1.7701337112
1748245858338981605,-0.264,,,,1.770903991
1748245858346684403,-0.233,,,,1.7716742708
1748245858354387201,-0.13,,,,1.7724445506
1748245858362089999,-0.159,,,,1.7732148304
1748245858369792797,-0.223,,,,1.7739851102
1748245858377495595,-0.211,,,,1.77475539
1748245858385198393,-0.181,,,,1.7755256698
1748245858392901191,-0.152,,,,1.7762959496
1748245858400603989,-0.169,,,,1.7770662294
1748245858408306787,-0.264,,,,1.7778365092
1748245858416009585,-0.291,,,,1.778606789
1748245858423712383,-0.193,,,,1.7793770688
1748245858431415181,-0.134,,,,1.7801473486
1748245858439117979,-0.149,,,,1.7809176284
1748245858446820777,-0.157,,,,1.7816879082
1748245858454523575,-0.193,,,,1.782458188
1748245858462226373,-0.24,,,,1.7832284678
1748245858469929171,-0.181,,,,1.7839987476
1748245858477631969,-0.13,,,,1.7847690274
1748245858485334767,-0.196,,,,1.7855393072
1748245858493037565,-0.264,,,,1.786309587
1748245858500740363,-0.264,,,,1.7870798668
1748245858508443161,-0.238,,,,1.7878501466
1748245858516145959,-0.201,,,,1.7886204264
1748245858523848757,-0.171,,,,1.7893907062
1748245858531551555,-0.09,,,,1.790160986
1748245858539254353,0.149,,,,1.7909312658
1748245858546957151,0.355,,,,1.7917015456
1748245858554659949,0.007,,,,1.7924718254
1748245858562362747,-0.633,,,,1.7932421052
1748245858570065545,-0.645,,,,1.794012385
1748245858577768343,-0.272,,,,1.7947826648
1748245858585471141,-0.255,,,,1.7955529446
1748245858593173939,-0.323,,,,1.7963232244
1748245858600876737,-0.233,,,,1.7970935042
1748245858608579535,-0.149,,,,1.797863784
1748245858616282333,-0.1,,,,1.7986340638
1748245858623985199,-0.181,,,,1.7994043504
1748245858631687997,-0.291,,,,1.8001746302
1748245858639390795,-0.24,,,,1.80094491
1748245858647093593,-0.181,,,,1.8017151898
1748245858654796391,-0.255,,,,1.8024854696
1748245858662499189,-0.272,,,,1.8032557494
1748245858670201987,-0.152,,,,1.8040260292
1748245858677904785,-0.117,,,,1.804796309
1748245858685607583,-0.193,,,,1.8055665888
1748245858693310381,-0.186,,,,1.8063368686
1748245858701013179,-0.142,,,,1.8071071484
1748245858708715977,-0.154,,,,1.8078774282
1748245858716418775,-0.127,,,,1.808647708
1748245858724121573,-0.09,,,,1.8094179878
1748245858731824371,-0.137,,,,1.8101882676
1748245858739527169,-0.149,,,,1.8109585474
1748245858747229967,-0.09,,,,1.8117288272
1748245858754932765,-0.095,,,,1.812499107
1748245858762635563,-0.12,,,,1.8132693868
1748245858770338361,-0.105,,,,1.8140396666
1748245858778041159,-0.095,,,,1.8148099464
1748245858785743957,-0.063,,,,1.8155802262
1748245858793446755,-0.039,,,,1.816350506
1748245858801149553,-0.09,,,,1.8171207858
1748245858808852351,-0.134,,,,1.8178910656
1748245858816555149,-0.164,,,,1.8186613454
1748245858824257947,-0.247,,,,1.8194316252
1748245858831960745,-0.257,,,,1.820201905
1748245858839663543,-0.157,,,,1.8209721848
1748245858847366341,-0.13,,,,1.8217424646
1748245858855069139,-0.188,,,,1.8225127444
1748245858862771937,-0.191,,,,1.8232830242
1748245858870474735,-0.125,,,,1.824053304
1748245858878177533,-0.13,,,,1.8248235838
1748245858885880331,-0.23,,,,1.8255938636
1748245858893583129,-0.247,,,,1.8263641434
1748245858901285927,-0.154,,,,1.8271344232
1748245858908988725,-0.157,,,,1.827904703
1748245858916691523,-0.203,,,,1.8286749828
1748245858924394321,-0.142,,,,1.8294452626
1748245858932097119,-0.115,,,,1.8302155424
1748245858939799917,-0.184,,,,1.8309858222
1748245858947502715,-0.22,,,,1.831756102
1748245858955205513,-0.188,,,,1.8325263818
1748245858962908311,-0.149,,,,1.8332966616
1748245858970611109,-0.132,,,,1.8340669414
1748245858978313907,-0.157,,,,1.8348372212
1748245858986016705,-0.188,,,,1.835607501
1748245858993719503,-0.181,,,,1.8363777808
1748245859001422301,-0.196,,,,1.8371480606
1748245859009125099,-0.235,,,,1.8379183404
1748245859016827897,-0.169,,,,1.8386886202
1748245859024530695,-0.063,,,,1.8394589
1748245859032233493,-0.115,,,,1.8402291798
1748245859039936291,-0.196,,,,1.8409994596
1748245859047639089,-0.144,,,,1.8417697394
1748245859055341887,-0.093,,,,1.8425400192
1748245859063044685,-0.1,,,,1.843310299
1748245859070747483,-0.105,,,,1.8440805788
1748245859078450281,-0.157,,,,1.8448508586
1748245859086153079,-0.201,,,,1.8456211384
1748245859093855877,-0.152,,,,1.8463914182
1748245859101558675,-0.112,,,,1.847161698
1748245859109261473,-0.147,,,,1.8479319778
1748245859116964271,-0.184,,,,1.8487022576
1748245859124667069,-0.171,,,,1.8494725374
1748245859132369867,-0.127,,,,1.8502428172
1748245859140072665,-0.014,,,,1.851013097
1748245859147775463,0.215,,,,1.8517833768
1748245859155478261,0.395,,,,1.8525536566
1748245859163181059,0.154,,,,1.8533239364
1748245859170883857,-0.385,,,,1.8540942162
1748245859178586655,-0.547,,,,1.854864496
1748245859186289521,-0.272,95.0,618.0,,1.8556347826
1748245859193992250,-0.098,,,,1.8564050555
1748245859201694979,-0.125,,,,1.8571753284
1748245859209397708,-0.139,,,,1.8579456013
1748245859217100437,-0.117,,,,1.8587158742
1748245859224803166,-0.122,,,,1.8594861471
1748245859232505895,-0.127,,,,1.86025642
1748245859240208624,-0.115,,,,1.8610266929
1748245859247911353,-0.103,,,,1.8617969658
1748245859255614082,-0.078,,,,1.8625672387
1748245859263316811,-0.08,,,,1.8633375116
1748245859271019540,-0.107,,,,1.8641077845
1748245859278722269,-0.098,,,,1.8648780574
1748245859286424998,-0.063,,,,1.8656483303
1748245859294127727,-0.058,,,,1.8664186032
1748245859301830456,-0.073,,,,1.8671888761
1748245859309533185,-0.071,,,,1.867959149
1748245859317235914,-0.041,,,,1.8687294219
1748245859324938643,-0.009,,,,1.8694996948
1748245859332641372,-0.009,,,,1.8702699677
1748245859340344101,-0.019,,,,1.8710402406
1748245859348046830,0.014,,,,1.8718105135
1748245859355749559,0.051,,,,1.8725807864
1748245859363452288,0.019,,,,1.8733510593
1748245859371155017,0.0,,,,1.8741213322
1748245859378857746,0.034,,,,1.8748916051
1748245859386560475,0.022,,,,1.875661878
1748245859394263204,0.002,,,,1.8764321509
1748245859401965933,0.022,,,,1.8772024238
1748245859409668662,-0.007,,,,1.8779726967
1748245859417371391,-0.061,,,,1.8787429696
1748245859425074120,-0.053,,,,1.8795132425
1748245859432776849,-0.019,,,,1.8802835154
1748245859440479578,-0.058,,,,1.8810537883
1748245859448182307,-0.107,,,,1.8818240612
1748245859455885036,-0.036,,,,1.8825943341
1748245859463587765,-0.009,,,,1.883364607
1748245859471290494,-0.085,,,,1.8841348799
1748245859478993223,-0.076,,,,1.8849051528
1748245859486695952,-0.017,,,,1.8856754257
1748245859494398681,-0.103,,,,1.8864456986
1748245859502101410,-0.218,,,,1.8872159715
1748245859509804139,-0.122,,,,1.8879862444
1748245859517506868,-0.022,,,,1.8887565173
1748245859525209597,-0.088,,,,1.8895267902
1748245859532912326,-0.125,,,,1.8902970631
1748245859540615055,-0.105,,,,1.891067336
1748245859548317784,-0.107,,,,1.8918376089
1748245859556020513,-0.142,,,,1.8926078818
1748245859563723242,-0.218,,,,1.8933781547
1748245859571425971,-0.215,,,,1.8941484276
1748245859579128700,-0.157,,,,1.8949187005
1748245859586831429,-0.184,,,,1.8956889734
1748245859594534158,-0.22,,,,1.8964592463
1748245859602236887,-0.213,,,,1.8972295192
1748245859609939616,-0.22,,,,1.8979997921
1748245859617642345,-0.235,,,,1.898770065
1748245859625345074,-0.235,,,,1.8995403379
1748245859633047803,-0.22,,,,1.9003106108
1748245859640750532,-0.201,,,,1.9010808837
1748245859648453261,-0.218,,,,1.9018511566
1748245859656155990,-0.269,,,,1.9026214295
1748245859663858719,-0.264,,,,1.9033917024
1748245859671561448,-0.223,,,,1.9041619753
1748245859679264177,-0.24,,,,1.9049322482
1748245859686966906,-0.264,,,,1.9057025211
1748245859694669635,-0.279,,,,1.906472794
1748245859702372364,-0.368,,,,1.9072430669
1748245859710075093,-0.345,,,,1.9080133398
1748245859717777822,-0.188,,,,1.9087836127
1748245859725480551,-0.218,,,,1.9095538856
1748245859733183280,-0.323,,,,1.9103241585
1748245859740886009,-0.22,,,,1.9110944314
1748245859748588760,-0.012,,,,1.9118647065
1748245859756291628,0.166,,,,1.9126349933
1748245859763994496,0.171,,,,1.9134052801
1748245859771697364,-0.245,,,,1.9141755669
1748245859779400232,-0.6990000000000001,,,,1.9149458537
1748245859787103100,-0.579,,,,1.9157161405
1748245859794805968,-0.284,,,,1.9164864273
1748245859802508836,-0.289,,,,1.9172567141
1748245859810211704,-0.331,,,,1.9180270009
1748245859817914572,-0.264,,,,1.9187972877
1748245859825617440,-0.22,,,,1.9195675745
1748245859833320308,-0.274,,,,1.9203378613
1748245859841023176,-0.343,,,,1.9211081481
1748245859848726044,-0.289,,,,1.9218784349
1748245859856428912,-0.242,,,,1.9226487217
1748245859864131780,-0.282,,,,1.9234190085
1748245859871834648,-0.277,,,,1.9241892953
1748245859879537516,-0.255,,,,1.9249595821
1748245859887240384,-0.277,,,,1.9257298689
1748245859894943252,-0.299,,,,1.9265001557
1748245859902646120,-0.299,,,,1.9272704425
1748245859910348988,-0.247,,,,1.9280407293
1748245859918051856,-0.176,,,,1.9288110161
1748245859925754724,-0.215,,,,1.9295813029
1748245859933457592,-0.304,,,,1.9303515897
1748245859941160460,-0.264,,,,1.9311218765
1748245859948863328,-0.184,,,,1.9318921633
1748245859956566196,-0.191,,,,1.9326624501
1748245859964269064,-0.238,,,,1.9334327369
1748245859971971932,-0.262,,,,1.9342030237
1748245859979674800,-0.269,,,,1.9349733105
1748245859987377668,-0.272,,,,1.9357435973
1748245859995080536,-0.228,,,,1.9365138841
1748245860002783404,-0.181,,,,1.9372841709
1748245860010486272,-0.252,,,,1.9380544577
1748245860018189140,-0.348,,,,1.9388247445
1748245860025892008,-0.316,,,,1.9395950313
1748245860033594876,-0.257,,,,1.9403653181
1748245860041297744,-0.301,,,,1.9411356049
1748245860049000612,-0.35,,,,1.9419058917
1748245860056703480,-0.323,,,,1.9426761785
1748245860064406348,-0.326,,,,1.9434464653
1748245860072109216,-0.368,,,,1.9442167521
1748245860079812084,-0.363,,,,1.9449870389
1748245860087514952,-0.358,,,,1.9457573257
1748245860095217820,-0.377,,,,1.9465276125
1748245860102920688,-0.372,,,,1.9472978993
1748245860110623556,-0.404,,,,1.9480681861
1748245860118326424,-0.426,,,,1.9488384729
1748245860126029292,-0.353,,,,1.9496087597
1748245860133732160,-0.306,,,,1.9503790465
1748245860141435028,-0.331,,,,1.9511493333
1748245860149137896,-0.345,,,,1.9519196201
1748245860156840764,-0.365,,,,1.9526899069
1748245860164543632,-0.414,,,,1.9534601937
1748245860172246500,-0.409,,,,1.9542304805
1748245860179949368,-0.382,,,,1.9550007673
1748245860187652236,-0.412,,,,1.9557710541
1748245860195355104,-0.402,,,,1.9565413409
1748245860203057972,-0.35,,,,1.9573116277
1748245860210760840,-0.375,,,,1.9580819145
1748245860218463708,-0.387,,,,1.9588522013
1748245860226166576,-0.328,,,,1.9596224881
1748245860233869444,-0.368,,,,1.9603927749
1748245860241572312,-0.441,,,,1.9611630617
1748245860249275180,-0.333,,,,1.9619333485
1748245860256978048,-0.262,,,,1.9627036353
1748245860264680916,-0.38,,,,1.9634739221
1748245860272383784,-0.436,,,,1.9642442089
1748245860280086652,-0.375,,,,1.9650144957
1748245860287789520,-0.38,,,,1.9657847825
1748245860295492388,-0.431,,,,1.9665550693
1748245860303195256,-0.426,,,,1.9673253561
1748245860310898169,-0.375,96.0,616.0,,1.9680956474
1748245860318600967,-0.326,,608.0,,1.9688659272
1748245860326303765,-0.326,,,,1.969636207
1748245860334006563,-0.269,,,,1.9704064868
1748245860341709361,-0.046,,,,1.9711767666
1748245860349412159,0.127,,,,1.9719470464
1748245860357114957,-0.095,,,,1.9727173262
1748245860364817755,-0.603,,,,1.973487606
1748245860372520553,-0.765,,,,1.9742578858
1748245860380223351,-0.5,,,,1.9750281656
1748245860387926149,-0.372,,,,1.9757984454
1748245860395628947,-0.404,,,,1.9765687252
1748245860403331745,-0.336,,,,1.977339005
1748245860411034543,-0.301,,,,1.9781092848
1748245860418737341,-0.355,,,,1.9788795646
1748245860426440139,-0.36,,,,1.9796498444
1748245860434142937,-0.316,,,,1.9804201242
1748245860441845735,-0.296,,,,1.981190404
1748245860449548533,-0.331,,,,1.9819606838
1748245860457251331,-0.36,,,,1.9827309636
1748245860464954129,-0.341,,,,1.9835012434
1748245860472656927,-0.291,,,,1.9842715232
1748245860480359725,-0.262,,,,1.985041803
1748245860488062523,-0.282,,,,1.9858120828
1748245860495765321,-0.301,,,,1.9865823626
1748245860503468119,-0.277,,,,1.9873526424
1748245860511170917,-0.296,,,,1.9881229222
1748245860518873715,-0.304,,,,1.988893202
1748245860526576513,-0.201,,,,1.9896634818
1748245860534279311,-0.169,,,,1.9904337616
1748245860541982109,-0.201,,,,1.9912040414
1748245860549684907,-0.161,,,,1.9919743212
1748245860557387705,-0.142,,,,1.992744601
1748245860565090503,-0.171,,,,1.9935148808
1748245860572793301,-0.196,,,,1.9942851606
1748245860580496099,-0.242,,,,1.9950554404
1748245860588198897,-0.228,,,,1.9958257202
1748245860595901695,-0.142,,,,1.996596
1748245860603604493,-0.161,,,,1.9973662798
1748245860611307291,-0.233,,,,1.9981365596
1748245860619010089,-0.235,,,,1.9989068394
1748245860626712887,-0.235,,,,1.9996771192
1748245860634415685,-0.255,,,,2.000447399
1748245860642118483,-0.299,,,,2.0012176788
1748245860649821281,-0.35,,,,2.0019879586
1748245860657524079,-0.284,,,,2.0027582384
1748245860665226877,-0.193,,,,2.0035285182
1748245860672929675,-0.255,,,,2.004298798
1748245860680632473,-0.299,,,,2.0050690778
1748245860688335271,-0.23,,,,2.0058393576
1748245860696038069,-0.22,,,,2.0066096374
1748245860703740867,-0.26,,,,2.0073799172
1748245860711443665,-0.252,,,,2.008150197
1748245860719146463,-0.245,,,,2.0089204768
1748245860726849261,-0.238,,,,2.0096907566
1748245860734552059,-0.215,,,,2.0104610364
1748245860742254857,-0.247,,,,2.0112313162
1748245860749957655,-0.287,,,,2.012001596
1748245860757660453,-0.257,,,,2.0127718758
1748245860765363251,-0.252,,,,2.0135421556
1748245860773066049,-0.25,,,,2.0143124354
1748245860780768847,-0.171,,,,2.0150827152
1748245860788471645,-0.193,,,,2.015852995
1748245860796174443,-0.296,,,,2.0166232748
1748245860803877241,-0.264,,,,2.0173935546
1748245860811580039,-0.198,,,,2.0181638344
1748245860819282837,-0.228,,,,2.0189341142
1748245860826985635,-0.26,,,,2.019704394
1748245860834688433,-0.257,,,,2.0204746738
1748245860842391231,-0.252,,,,2.0212449536
1748245860850094029,-0.228,,,,2.0220152334
1748245860857796827,-0.238,,,,2.0227855132
1748245860865499625,-0.274,,,,2.023555793
1748245860873202491,-0.233,97.0,609.0,,2.0243260796
1748245860880905011,-0.203,,604.0,,2.0250963316
1748245860888607531,-0.23,,,,2.0258665836
1748245860896310051,-0.215,,,,2.0266368356
1748245860904012571,-0.228,,,,2.0274070876
1748245860911715091,-0.294,,,,2.0281773396
1748245860919417611,-0.257,,,,2.0289475916
1748245860927120131,-0.039,,,,2.0297178436
1748245860934822651,0.22,,,,2.0304880956
1748245860942525171,0.223,,,,2.0312583476
1748245860950227691,-0.203,,,,2.0320285996
1748245860957930211,-0.598,,,,2.0327988516
1748245860965632731,-0.458,,,,2.0335691036
1748245860973335251,-0.218,,,,2.0343393556
1748245860981037771,-0.284,,,,2.0351096076
1748245860988740291,-0.336,,,,2.0358798596
1748245860996442811,-0.228,,,,2.0366501116
1748245861004145331,-0.208,,,,2.0374203636
1748245861011847851,-0.272,,,,2.0381906156
1748245861019550371,-0.274,,,,2.0389608676
1748245861027252891,-0.264,,,,2.0397311196
1748245861034955411,-0.274,,,,2.0405013716
1748245861042657931,-0.223,,,,2.0412716236
1748245861050360451,-0.176,,,,2.0420418756
1748245861058062971,-0.211,,,,2.0428121276
1748245861065765491,-0.235,,,,2.0435823796
1748245861073468011,-0.23,,,,2.0443526316
1748245861081170531,-0.215,,,,2.0451228836
1748245861088873051,-0.201,,,,2.0458931356
1748245861096575571,-0.196,,,,2.0466633876
1748245861104278091,-0.169,,,,2.0474336396
1748245861111980611,-0.152,,,,2.0482038916
1748245861119683131,-0.147,,,,2.0489741436
1748245861127385651,-0.144,,,,2.0497443956
1748245861135088171,-0.152,,,,2.0505146476
1748245861142790691,-0.142,,,,2.0512848996
1748245861150493211,-0.098,,,,2.0520551516
1748245861158195731,-0.085,,,,2.0528254036
1748245861165898251,-0.117,,,,2.0535956556
1748245861173600771,-0.117,,,,2.0543659076
1748245861181303291,-0.098,,,,2.0551361596
1748245861189005811,-0.142,,,,2.0559064116
1748245861196708331,-0.186,,,,2.0566766636
1748245861204410851,-0.166,,,,2.0574469156
1748245861212113371,-0.164,,,,2.0582171676
1748245861219815891,-0.191,,,,2.0589874196
1748245861227518411,-0.201,,,,2.0597576716
1748245861235220931,-0.201,,,,2.0605279236
1748245861242923451,-0.188,,,,2.0612981756
1748245861250625971,-0.169,,,,2.0620684276
1748245861258328491,-0.176,,,,2.0628386796
1748245861266031011,-0.208,,,,2.0636089316
1748245861273733531,-0.235,,,,2.0643791836
1748245861281436051,-0.215,,,,2.0651494356
1748245861289138571,-0.166,,,,2.0659196876
1748245861296841091,-0.157,,,,2.0666899396
1748245861304543611,-0.171,,,,2.0674601916
1748245861312246131,-0.154,,,,2.0682304436
1748245861319948651,-0.169,,,,2.0690006956
1748245861327651171,-0.228,,,,2.0697709476
1748245861335353691,-0.233,,,,2.0705411996
1748245861343056211,-0.193,,,,2.0713114516
1748245861350758731,-0.193,,,,2.0720817036
1748245861358461251,-0.203,,,,2.0728519556
1748245861366163771,-0.179,,,,2.0736222076
1748245861373866291,-0.157,,,,2.0743924596
1748245861381568811,-0.169,,,,2.0751627116
1748245861389271331,-0.211,,,,2.0759329636
1748245861396973851,-0.225,,,,2.0767032156
1748245861404676371,-0.225,,,,2.0774734676
1748245861412378891,-0.218,,,,2.0782437196
1748245861420081411,-0.166,,,,2.0790139716
1748245861427783931,-0.137,,,,2.0797842236
1748245861435486469,-0.169,,,,2.0805544774
1748245861443189337,-0.196,,,,2.0813247642
1748245861450892205,-0.171,,,,2.082095051
1748245861458595073,-0.13,,,,2.0828653378
1748245861466297941,-0.159,,,,2.0836356246
1748245861474000809,-0.225,,,,2.0844059114
1748245861481703677,-0.218,,,,2.0851761982
1748245861489406545,-0.191,,,,2.085946485
1748245861497109413,-0.203,,,,2.0867167718
1748245861504812281,-0.191,,,,2.0874870586
1748245861512515149,-0.144,,,,2.0882573454
1748245861520218017,-0.159,,,,2.0890276322
1748245861527920885,-0.193,,,,2.089797919
1748245861535623753,-0.034,,,,2.0905682058
1748245861543326621,0.279,,,,2.0913384926
1748245861551029489,0.291,,,,2.0921087794
1748245861558732357,-0.171,,,,2.0928790662
1748245861566435225,-0.579,,,,2.093649353
1748245861574138093,-0.493,,,,2.0944196398
1748245861581840961,-0.255,,,,2.0951899266
1748245861589543829,-0.211,,,,2.0959602134
1748245861597246697,-0.218,,,,2.0967305002
1748245861604949565,-0.179,,,,2.097500787
1748245861612652433,-0.174,,,,2.0982710738
1748245861620355301,-0.203,,,,2.0990413606
1748245861628058169,-0.203,,,,2.0998116474
1748245861635761037,-0.193,,,,2.1005819342
1748245861643463905,-0.191,,,,2.101352221
1748245861651166773,-0.198,,,,2.1021225078
1748245861658869641,-0.211,,,,2.1028927946
1748245861666572509,-0.176,,,,2.1036630814
1748245861674275377,-0.142,,,,2.1044333682
1748245861681978245,-0.166,,,,2.105203655
1748245861689681113,-0.166,,,,2.1059739418
1748245861697383981,-0.112,,,,2.1067442286
1748245861705086849,-0.127,,,,2.1075145154
1748245861712789717,-0.179,,,,2.1082848022
1748245861720492585,-0.157,,,,2.109055089
1748245861728195453,-0.115,,,,2.1098253758
1748245861735898321,-0.085,,,,2.1105956626
1748245861743601189,-0.063,,,,2.1113659494
1748245861751304057,-0.078,,,,2.1121362362
1748245861759006925,-0.066,,,,2.112906523
1748245861766709793,-0.056,,,,2.1136768098
1748245861774412661,-0.088,,,,2.1144470966
1748245861782115529,-0.083,,,,2.1152173834
1748245861789818397,-0.061,,,,2.1159876702
1748245861797521265,-0.088,,,,2.116757957
1748245861805224133,-0.11,,,,2.1175282438
1748245861812927001,-0.088,,,,2.1182985306
1748245861820629869,-0.088,,,,2.1190688174
1748245861828332737,-0.142,,,,2.1198391042
1748245861836035605,-0.154,,,,2.120609391
1748245861843738473,-0.125,,,,2.1213796778
1748245861851441341,-0.152,,,,2.1221499646
1748245861859144209,-0.191,,,,2.1229202514
1748245861866847077,-0.154,,,,2.1236905382
1748245861874549945,-0.12,,,,2.124460825
1748245861882252813,-0.132,,,,2.1252311118
1748245861889955681,-0.134,,,,2.1260013986
1748245861897658549,-0.152,,,,2.1267716854
1748245861905361417,-0.154,,,,2.1275419722
1748245861913064285,-0.144,,,,2.128312259
1748245861920767153,-0.166,,,,2.1290825458
1748245861928470021,-0.169,,,,2.1298528326
1748245861936172889,-0.149,,,,2.1306231194
1748245861943875757,-0.132,,,,2.1313934062
1748245861951578625,-0.13,,,,2.132163693
1748245861959281493,-0.147,,,,2.1329339798
1748245861966984361,-0.174,,,,2.1337042666
1748245861974687229,-0.181,,,,2.1344745534
1748245861982390097,-0.169,,,,2.1352448402
1748245861990092965,-0.176,,,,2.136015127
1748245861997795878,-0.176,97.0,589.0,,2.1367854183
1748245862005498746,-0.142,,,,2.1375557051
1748245862013201614,-0.164,,,,2.1383259919
1748245862020904482,-0.201,,,,2.1390962787
1748245862028607350,-0.157,,,,2.1398665655
1748245862036310218,-0.157,,,,2.1406368523
1748245862044013086,-0.206,,,,2.1414071391
1748245862051715954,-0.171,,,,2.1421774259
1748245862059418822,-0.142,,,,2.1429477127
1748245862067121690,-0.166,,,,2.1437179995
1748245862074824558,-0.117,,,,2.1444882863
1748245862082527426,-0.08,,,,2.1452585731
1748245862090230294,-0.174,,,,2.1460288599
1748245862097933162,-0.215,,,,2.1467991467
1748245862105636030,-0.144,,,,2.1475694335
1748245862113338898,-0.147,,,,2.1483397203
1748245862121041766,-0.223,,,,2.1491100071
1748245862128744634,-0.213,,,,2.1498802939
1748245862136447502,-0.144,,,,2.1506505807
1748245862144150370,-0.152,,,,2.1514208675
1748245862151853238,-0.188,,,,2.1521911543
1748245862159556106,-0.127,,,,2.1529614411
1748245862167258974,0.09,,,,2.1537317279
1748245862174961842,0.326,,,,2.1545020147
1748245862182664710,0.176,,,,2.1552723015
1748245862190367578,-0.355,,,,2.1560425883
