time,ecg,hr,rr,marker,norm_time
1741758043828013911,-0.137,,,,0.0
1741758043835717406,-0.144,,,,0.0007703495
1741758043843420901,-0.164,,,,0.001540699
1741758043851124396,-0.117,,,,0.0023110485
1741758043858827891,-0.098,,,,0.003081398
1741758043866531386,-0.103,,,,0.0038517475
1741758043874234881,-0.078,,,,0.004622097
1741758043881938376,-0.058,,,,0.0053924465
1741758043889641871,-0.044,,,,0.006162796
1741758043897345366,-0.019,,,,0.0069331455
1741758043905048861,0.004,,,,0.007703495
1741758043912752356,0.026,,,,0.0084738445
1741758043920455851,0.051,,,,0.009244194
1741758043928159346,0.098,,,,0.0100145435
1741758043935862841,0.154,,,,0.010784893
1741758043943566336,0.193,,,,0.0115552425
1741758043951269831,0.247,,,,0.012325592
1741758043958973326,0.311,,,,0.0130959415
1741758043966676821,0.36,,,,0.013866291
1741758043974380316,0.397,,,,0.0146366405
1741758043982083811,0.424,,,,0.01540699
1741758043989787306,0.441,,,,0.0161773395
1741758043997490801,0.419,,,,0.016947689
1741758044005194296,0.365,,,,0.0177180385
1741758044012897791,0.287,,,,0.018488388
1741758044020601286,0.159,,,,0.0192587375
1741758044028304781,0.009,,,,0.020029087
1741758044036008276,-0.112,,,,0.0207994365
1741758044043711771,-0.208,,,,0.021569786
1741758044051415266,-0.279,,,,0.0223401355
1741758044059118761,-0.328,,,,0.023110485
1741758044066822256,-0.353,,,,0.0238808345
1741758044074525751,-0.353,,,,0.024651184
1741758044082229246,-0.348,,,,0.0254215335
1741758044089932741,-0.338,,,,0.026191883
1741758044097636236,-0.331,,,,0.0269622325
1741758044105339731,-0.318,,,,0.027732582
1741758044113043226,-0.309,,,,0.0285029315
1741758044120746721,-0.311,,,,0.029273281
1741758044128450216,-0.296,,,,0.0300436305
1741758044136153711,-0.274,,,,0.03081398
1741758044143857206,-0.262,,,,0.0315843295
1741758044151560701,-0.255,,,,0.032354679
1741758044159264196,-0.252,,,,0.0331250285
1741758044166967691,-0.245,,,,0.033895378
1741758044174671186,-0.23,,,,0.0346657275
1741758044182374681,-0.225,,,,0.035436077
1741758044190078176,-0.22,,,,0.0362064265
1741758044197781671,-0.218,,,,0.036976776
1741758044205485166,-0.22,,,,0.0377471255
1741758044213188661,-0.215,,,,0.038517475
1741758044220892156,-0.211,,,,0.0392878245
1741758044228595651,-0.203,,,,0.040058174
1741758044236299146,-0.198,,,,0.0408285235
1741758044244002641,-0.203,,,,0.041598873
1741758044251706136,-0.198,,,,0.0423692225
1741758044259409631,-0.193,,,,0.043139572
1741758044267113126,-0.193,,,,0.0439099215
1741758044274816621,-0.186,,,,0.044680271
1741758044282520116,-0.184,,,,0.0454506205
1741758044290223611,-0.179,,,,0.04622097
1741758044297927106,-0.179,,,,0.0469913195
1741758044305630601,-0.181,,,,0.047761669
1741758044313334096,-0.174,,,,0.0485320185
1741758044321037591,-0.169,,,,0.049302368
1741758044328741086,-0.161,,,,0.0500727175
1741758044336444581,-0.159,,,,0.050843067
1741758044344148076,-0.164,,,,0.0516134165
1741758044351851571,-0.157,,,,0.052383766
1741758044359555066,-0.157,,,,0.0531541155
1741758044367258561,-0.154,,,,0.053924465
1741758044374962056,-0.149,,,,0.0546948145
1741758044382665551,-0.149,,,,0.055465164
1741758044390369099,-0.147,79.0,,,0.0562355188
1741758044398072873,-0.144,,,,0.0570058962
1741758044405776647,-0.147,,,,0.0577762736
1741758044413480421,-0.142,,,,0.058546651
1741758044421184195,-0.142,,,,0.0593170284
1741758044428887969,-0.142,,,,0.0600874058
1741758044436591743,-0.13,,,,0.0608577832
1741758044444295517,-0.107,,,,0.0616281606
1741758044451999291,-0.085,,,,0.062398538
1741758044459703065,-0.1,,,,0.0631689154
1741758044467406839,-0.132,,,,0.0639392928
1741758044475110613,-0.139,,,,0.0647096702
1741758044482814387,-0.134,,818.0,,0.0654800476
1741758044490518161,-0.122,,,,0.066250425
1741758044498221935,-0.122,,,,0.0670208024
1741758044505925709,-0.13,,,,0.0677911798
1741758044513629483,-0.125,,,,0.0685615572
1741758044521333257,-0.125,,,,0.0693319346
1741758044529037031,-0.149,,,,0.070102312
1741758044536740805,-0.238,,,,0.0708726894
1741758044544444579,-0.245,,,,0.0716430668
1741758044552148353,0.134,,,,0.0724134442
1741758044559852127,0.772,,,,0.0731838216
1741758044567555901,1.163,,,,0.073954199
1741758044575259675,0.895,,,,0.0747245764
1741758044582963449,0.117,,,,0.0754949538
1741758044590667223,-0.267,,,,0.0762653312
1741758044598370997,-0.076,,,,0.0770357086
1741758044606074771,-0.044,,,,0.077806086
1741758044613778545,-0.186,,,,0.0785764634
1741758044621482319,-0.161,,,,0.0793468408
1741758044629186093,-0.11,,,,0.0801172182
1741758044636889867,-0.139,,,,0.0808875956
1741758044644593641,-0.132,,,,0.081657973
1741758044652297415,-0.088,,,,0.0824283504
1741758044660001189,-0.083,,,,0.0831987278
1741758044667704963,-0.083,,,,0.0839691052
1741758044675408737,-0.058,,,,0.0847394826
1741758044683112511,-0.041,,,,0.08550986
1741758044690816285,-0.022,,,,0.0862802374
1741758044698520059,0.002,,,,0.0870506148
1741758044706223833,0.029,,,,0.0878209922
1741758044713927607,0.063,,,,0.0885913696
1741758044721631381,0.098,,,,0.089361747
1741758044729335155,0.137,,,,0.0901321244
1741758044737038929,0.179,,,,0.0909025018
1741758044744742703,0.233,,,,0.0916728792
1741758044752446477,0.304,,,,0.0924432566
1741758044760150251,0.358,,,,0.093213634
1741758044767854025,0.395,,,,0.0939840114
1741758044775557799,0.431,,,,0.0947543888
1741758044783261573,0.446,,,,0.0955247662
1741758044790965347,0.444,,,,0.0962951436
1741758044798669121,0.407,,,,0.097065521
1741758044806372895,0.323,,,,0.0978358984
1741758044814076669,0.206,,,,0.0986062758
1741758044821780443,0.066,,,,0.0993766532
1741758044829484217,-0.068,,,,0.1001470306
1741758044837187991,-0.181,,,,0.100917408
1741758044844891765,-0.257,,,,0.1016877854
1741758044852595539,-0.301,,,,0.1024581628
1741758044860299313,-0.336,,,,0.1032285402
1741758044868003087,-0.35,,,,0.1039989176
1741758044875706861,-0.343,,,,0.104769295
1741758044883410635,-0.338,,,,0.1055396724
1741758044891114409,-0.326,,,,0.1063100498
1741758044898818183,-0.318,,,,0.1070804272
1741758044906521957,-0.311,,,,0.1078508046
1741758044914225731,-0.296,,,,0.108621182
1741758044921929505,-0.284,,,,0.1093915594
1741758044929633279,-0.274,,,,0.1101619368
1741758044937337053,-0.267,,,,0.1109323142
1741758044945040827,-0.255,,,,0.1117026916
1741758044952744627,-0.238,79.0,,,0.1124730716
1741758044960448262,-0.233,,,,0.1132434351
1741758044968151897,-0.23,,,,0.1140137986
1741758044975855532,-0.218,,,,0.1147841621
1741758044983559167,-0.213,,,,0.1155545256
1741758044991262802,-0.206,,,,0.1163248891
1741758044998966437,-0.201,,,,0.1170952526
1741758045006670072,-0.193,,,,0.1178656161
1741758045014373707,-0.184,,,,0.1186359796
1741758045022077342,-0.184,,,,0.1194063431
1741758045029780977,-0.181,,,,0.1201767066
1741758045037484612,-0.176,,,,0.1209470701
1741758045045188247,-0.181,,,,0.1217174336
1741758045052891882,-0.176,,,,0.1224877971
1741758045060595517,-0.174,,,,0.1232581606
1741758045068299152,-0.169,,,,0.1240285241
1741758045076002787,-0.166,,,,0.1247988876
1741758045083706422,-0.174,,,,0.1255692511
1741758045091410057,-0.169,,,,0.1263396146
1741758045099113692,-0.161,,,,0.1271099781
1741758045106817327,-0.157,,,,0.1278803416
1741758045114520962,-0.152,,,,0.1286507051
1741758045122224597,-0.159,,,,0.1294210686
1741758045129928232,-0.157,,,,0.1301914321
1741758045137631867,-0.152,,,,0.1309617956
1741758045145335502,-0.152,,,,0.1317321591
1741758045153039137,-0.147,,,,0.1325025226
1741758045160742772,-0.142,,,,0.1332728861
1741758045168446407,-0.142,,,,0.1340432496
1741758045176150042,-0.147,,,,0.1348136131
1741758045183853677,-0.161,,,,0.1355839766
1741758045191557312,-0.161,,,,0.1363543401
1741758045199260947,-0.147,,,,0.1371247036
1741758045206964582,-0.134,,,,0.1378950671
1741758045214668217,-0.127,,,,0.1386654306
1741758045222371852,-0.107,,,,0.1394357941
1741758045230075487,-0.083,,,,0.1402061576
1741758045237779122,-0.095,,,,0.1409765211
1741758045245482757,-0.125,,,,0.1417468846
1741758045253186392,-0.13,,,,0.1425172481
1741758045260890027,-0.132,,,,0.1432876116
1741758045268593662,-0.125,,,,0.1440579751
1741758045276297297,-0.115,,,,0.1448283386
1741758045284000932,-0.12,,,,0.1455987021
1741758045291704567,-0.115,,,,0.1463690656
1741758045299408202,-0.115,,,,0.1471394291
1741758045307111837,-0.137,,,,0.1479097926
1741758045314815472,-0.223,,,,0.1486801561
1741758045322519107,-0.294,,,,0.1494505196
1741758045330222742,-0.058,,,,0.1502208831
1741758045337926377,0.542,,854.0,,0.1509912466
1741758045345630012,1.15,,,,0.1517616101
1741758045353333647,1.253,,,,0.1525319736
1741758045361037282,0.5740000000000001,,,,0.1533023371
1741758045368740917,-0.174,,,,0.1540727006
1741758045376444552,-0.203,,,,0.1548430641
1741758045384148187,-0.041,,,,0.1556134276
1741758045391851822,-0.154,,,,0.1563837911
1741758045399555457,-0.208,,,,0.1571541546
1741758045407259092,-0.139,,,,0.1579245181
1741758045414962727,-0.139,,,,0.1586948816
1741758045422666362,-0.159,,,,0.1594652451
1741758045430369997,-0.127,,,,0.1602356086
1741758045438073632,-0.11,,,,0.1610059721
1741758045445777267,-0.105,,,,0.1617763356
1741758045453480902,-0.083,,,,0.1625466991
1741758045461184537,-0.071,,,,0.1633170626
1741758045468888172,-0.053,,,,0.1640874261
1741758045476591807,-0.029,,,,0.1648577896
1741758045484295442,-0.009,,,,0.1656281531
1741758045491999077,0.012,,,,0.1663985166
1741758045499702712,0.039,,,,0.1671688801
1741758045507406347,0.073,,,,0.1679392436
1741758045515109989,0.115,,,,0.1687096078
1741758045522813693,0.161,,,,0.1694799782
1741758045530517397,0.223,,,,0.1702503486
1741758045538221101,0.279,,,,0.171020719
1741758045545924805,0.326,,,,0.1717910894
1741758045553628509,0.368,,,,0.1725614598
1741758045561332213,0.392,,,,0.1733318302
1741758045569035917,0.399,,,,0.1741022006
1741758045576739621,0.385,,,,0.174872571
1741758045584443325,0.331,,,,0.1756429414
1741758045592147029,0.24,,,,0.1764133118
1741758045599850733,0.117,,,,0.1771836822
1741758045607554437,-0.009,,,,0.1779540526
1741758045615258141,-0.12,,,,0.178724423
1741758045622961845,-0.213,,,,0.1794947934
1741758045630665549,-0.272,,,,0.1802651638
1741758045638369253,-0.304,,,,0.1810355342
1741758045646072957,-0.321,,,,0.1818059046
1741758045653776661,-0.321,,,,0.182576275
1741758045661480365,-0.318,,,,0.1833466454
1741758045669184069,-0.309,,,,0.1841170158
1741758045676887773,-0.296,,,,0.1848873862
1741758045684591477,-0.287,,,,0.1856577566
1741758045692295181,-0.269,,,,0.186428127
1741758045699998885,-0.262,,,,0.1871984974
1741758045707702589,-0.26,,,,0.1879688678
1741758045715406293,-0.247,,,,0.1887392382
1741758045723109997,-0.242,,,,0.1895096086
1741758045730813701,-0.235,,,,0.190279979
1741758045738517405,-0.225,,,,0.1910503494
1741758045746221109,-0.218,,,,0.1918207198
1741758045753924813,-0.211,,,,0.1925910902
1741758045761628517,-0.211,,,,0.1933614606
1741758045769332221,-0.198,,,,0.194131831
1741758045777035925,-0.191,,,,0.1949022014
1741758045784739629,-0.193,,,,0.1956725718
1741758045792443333,-0.186,,,,0.1964429422
1741758045800147037,-0.184,,,,0.1972133126
1741758045807850741,-0.186,,,,0.197983683
1741758045815554445,-0.176,,,,0.1987540534
1741758045823258149,-0.174,,,,0.1995244238
1741758045830961853,-0.171,,,,0.2002947942
1741758045838665557,-0.166,,,,0.2010651646
1741758045846369261,-0.164,,,,0.201835535
1741758045854072965,-0.161,,,,0.2026059054
1741758045861776669,-0.164,,,,0.2033762758
1741758045869480373,-0.157,,,,0.2041466462
1741758045877184077,-0.152,,,,0.2049170166
1741758045884887781,-0.154,,,,0.205687387
1741758045892591485,-0.147,,,,0.2064577574
1741758045900295189,-0.144,,,,0.2072281278
1741758045907998893,-0.147,,,,0.2079984982
1741758045915702597,-0.139,,,,0.2087688686
1741758045923406301,-0.137,,,,0.209539239
1741758045931110005,-0.142,,,,0.2103096094
1741758045938813709,-0.157,,,,0.2110799798
1741758045946517413,-0.166,,,,0.2118503502
1741758045954221117,-0.152,,,,0.2126207206
1741758045961924821,-0.139,,,,0.213391091
1741758045969628525,-0.13,,,,0.2141614614
1741758045977332229,-0.107,,,,0.2149318318
1741758045985035933,-0.088,,,,0.2157022022
1741758045992739637,-0.09,,,,0.2164725726
1741758046000443341,-0.115,,,,0.217242943
1741758046008147045,-0.127,,,,0.2180133134
1741758046015850749,-0.132,,,,0.2187836838
1741758046023554453,-0.132,,,,0.2195540542
1741758046031258157,-0.12,,,,0.2203244246
1741758046038961861,-0.117,,,,0.221094795
1741758046046665565,-0.12,,,,0.2218651654
1741758046054369269,-0.11,,,,0.2226355358
1741758046062072973,-0.117,,,,0.2234059062
1741758046069776677,-0.166,,,,0.2241762766
1741758046077480434,-0.269,77.0,,,0.2249466523
1741758046085184138,-0.22,,,,0.2257170227
1741758046092887842,0.228,,,,0.2264873931
1741758046100591546,0.917,,,,0.2272577635
1741758046108295250,1.369,,,,0.2280281339
1741758046115998954,1.03,,,,0.2287985043
1741758046123702658,0.12,,,,0.2295688747
1741758046131406362,-0.279,,,,0.2303392451
1741758046139110066,-0.095,,,,0.2311096155
1741758046146813770,-0.09,,,,0.2318799859
1741758046154517474,-0.22,,,,0.2326503563
1741758046162221178,-0.188,,,,0.2334207267
1741758046169924882,-0.137,,,,0.2341910971
1741758046177628586,-0.159,,,,0.2349614675
1741758046185332290,-0.149,,,,0.2357318379
1741758046193035994,-0.115,,,,0.2365022083
1741758046200739698,-0.112,,,,0.2372725787
1741758046208443402,-0.105,,,,0.2380429491
1741758046216147106,-0.078,,,,0.2388133195
1741758046223850810,-0.066,,,,0.2395836899
1741758046231554514,-0.049,,890.0,,0.2403540603
1741758046239258218,-0.031,,,,0.2411244307
1741758046246961922,-0.009,,,,0.2418948011
1741758046254665626,0.024,,,,0.2426651715
1741758046262369330,0.053,,,,0.2434355419
1741758046270073034,0.093,,,,0.2442059123
1741758046277776738,0.139,,,,0.2449762827
1741758046285480442,0.191,,,,0.2457466531
1741758046293184146,0.252,,,,0.2465170235
1741758046300887850,0.304,,,,0.2472873939
1741758046308591554,0.345,,,,0.2480577643
1741758046316295258,0.382,,,,0.2488281347
1741758046323998962,0.395,,,,0.2495985051
1741758046331702666,0.39,,,,0.2503688755
1741758046339406370,0.35,,,,0.2511392459
1741758046347110074,0.269,,,,0.2519096163
1741758046354813778,0.157,,,,0.2526799867
1741758046362517482,0.022,,,,0.2534503571
1741758046370221186,-0.098,,,,0.2542207275
1741758046377924890,-0.191,,,,0.2549910979
1741758046385628594,-0.26,,,,0.2557614683
1741758046393332298,-0.296,,,,0.2565318387
1741758046401036002,-0.321,,,,0.2573022091
1741758046408739706,-0.326,,,,0.2580725795
1741758046416443410,-0.318,,,,0.2588429499
1741758046424147114,-0.316,,,,0.2596133203
1741758046431850818,-0.306,,,,0.2603836907
1741758046439554522,-0.294,,,,0.2611540611
1741758046447258226,-0.282,,,,0.2619244315
1741758046454961930,-0.269,,,,0.2626948019
1741758046462665634,-0.267,,,,0.2634651723
1741758046470369338,-0.257,,,,0.2642355427
1741758046478073042,-0.245,,,,0.2650059131
1741758046485776746,-0.238,,,,0.2657762835
1741758046493480450,-0.23,,,,0.2665466539
1741758046501184154,-0.228,,,,0.2673170243
1741758046508887858,-0.218,,,,0.2680873947
1741758046516591562,-0.206,,,,0.2688577651
1741758046524295266,-0.208,,,,0.2696281355
1741758046531998970,-0.206,,,,0.2703985059
1741758046539702674,-0.201,,,,0.2711688763
1741758046547406378,-0.196,,,,0.2719392467
1741758046555110082,-0.186,,,,0.2727096171
1741758046562813786,-0.188,,,,0.2734799875
1741758046570517490,-0.184,,,,0.2742503579
1741758046578221194,-0.179,,,,0.2750207283
1741758046585924898,-0.179,,,,0.2757910987
1741758046593628602,-0.176,,,,0.2765614691
1741758046601332306,-0.174,,,,0.2773318395
1741758046609036010,-0.174,,,,0.2781022099
1741758046616739714,-0.169,,,,0.2788725803
1741758046624443418,-0.171,,,,0.2796429507
1741758046632147122,-0.166,,,,0.2804133211
1741758046639850879,-0.161,,,,0.2811836968
1741758046647554583,-0.159,,,,0.2819540672
1741758046655258287,-0.159,,,,0.2827244376
1741758046662961991,-0.174,,,,0.283494808
1741758046670665695,-0.181,,,,0.2842651784
1741758046678369399,-0.176,,,,0.2850355488
1741758046686073103,-0.164,,,,0.2858059192
1741758046693776807,-0.154,,,,0.2865762896
1741758046701480511,-0.137,,,,0.28734666
1741758046709184215,-0.103,,,,0.2881170304
1741758046716887919,-0.093,,,,0.2888874008
1741758046724591623,-0.122,,,,0.2896577712
1741758046732295327,-0.139,,,,0.2904281416
1741758046739999031,-0.139,,,,0.291198512
1741758046747702735,-0.132,,,,0.2919688824
1741758046755406439,-0.125,,,,0.2927392528
1741758046763110143,-0.127,,,,0.2935096232
1741758046770813847,-0.122,,,,0.2942799936
1741758046778517551,-0.117,,,,0.295050364
1741758046786221255,-0.12,,,,0.2958207344
1741758046793924959,-0.147,,,,0.2965911048
1741758046801628663,-0.24,,,,0.2973614752
1741758046809332367,-0.274,,,,0.2981318456
1741758046817036071,0.017,,,,0.298902216
1741758046824739775,0.637,,,,0.2996725864
1741758046832443479,1.204,,,,0.3004429568
1741758046840147183,1.16,,,,0.3012133272
1741758046847850887,0.39,,,,0.3019836976
1741758046855554591,-0.24,,,,0.302754068
1741758046863258295,-0.174,,,,0.3035244384
1741758046870961999,-0.053,,,,0.3042948088
1741758046878665703,-0.186,,,,0.3050651792
1741758046886369407,-0.208,,,,0.3058355496
1741758046894073111,-0.139,,,,0.30660592
1741758046901776815,-0.157,,,,0.3073762904
1741758046909480519,-0.159,,,,0.3081466608
1741758046917184223,-0.117,,,,0.3089170312
1741758046924887927,-0.11,,,,0.3096874016
1741758046932591631,-0.105,,,,0.310457772
1741758046940295335,-0.085,,,,0.3112281424
1741758046947999039,-0.066,,,,0.3119985128
1741758046955702743,-0.049,,,,0.3127688832
1741758046963406447,-0.034,,,,0.3135392536
1741758046971110151,-0.007,,,,0.314309624
1741758046978813855,0.019,,,,0.3150799944
1741758046986517559,0.046,,,,0.3158503648
1741758046994221263,0.085,,,,0.3166207352
1741758047001924967,0.127,,,,0.3173911056
1741758047009628671,0.181,,,,0.318161476
1741758047017332375,0.24,,,,0.3189318464
1741758047025036079,0.291,,,,0.3197022168
1741758047032739783,0.343,,,,0.3204725872
1741758047040443487,0.38,,,,0.3212429576
1741758047048147191,0.397,,,,0.322013328
1741758047055850895,0.395,,,,0.3227836984
1741758047063554599,0.36,,,,0.3235540688
1741758047071258303,0.289,,,,0.3243244392
1741758047078962007,0.176,,,,0.3250948096
1741758047086665711,0.044,,,,0.32586518
1741758047094369415,-0.076,,,,0.3266355504
1741758047102073119,-0.184,,,,0.3274059208
1741758047109776823,-0.255,,876.0,,0.3281762912
1741758047117480527,-0.296,,,,0.3289466616
1741758047125184231,-0.323,,,,0.329717032
1741758047132887935,-0.326,,,,0.3304874024
1741758047140591639,-0.328,,,,0.3312577728
1741758047148295343,-0.326,,,,0.3320281432
1741758047155999047,-0.311,,,,0.3327985136
1741758047163702751,-0.299,,,,0.333568884
1741758047171406455,-0.284,,,,0.3343392544
1741758047179110159,-0.279,,,,0.3351096248
1741758047186813863,-0.274,,,,0.3358799952
1741758047194517567,-0.26,,,,0.3366503656
1741758047202221324,-0.252,76.0,,,0.3374207413
1741758047209925028,-0.245,,,,0.3381911117
1741758047217628732,-0.235,,,,0.3389614821
1741758047225332436,-0.233,,,,0.3397318525
1741758047233036140,-0.223,,,,0.3405022229
1741758047240739844,-0.218,,,,0.3412725933
1741758047248443548,-0.211,,,,0.3420429637
1741758047256147252,-0.203,,,,0.3428133341
1741758047263850956,-0.203,,,,0.3435837045
1741758047271554660,-0.198,,,,0.3443540749
1741758047279258364,-0.193,,,,0.3451244453
1741758047286962068,-0.188,,,,0.3458948157
1741758047294665772,-0.181,,,,0.3466651861
1741758047302369476,-0.186,,,,0.3474355565
1741758047310073180,-0.186,,,,0.3482059269
1741758047317776884,-0.193,,,,0.3489762973
1741758047325480588,-0.208,,,,0.3497466677
1741758047333184292,-0.201,,,,0.3505170381
1741758047340887996,-0.188,,,,0.3512874085
1741758047348591700,-0.179,,,,0.3520577789
1741758047356295404,-0.154,,,,0.3528281493
1741758047363999108,-0.125,,,,0.3535985197
1741758047371702812,-0.122,,,,0.3543688901
1741758047379406516,-0.149,,,,0.3551392605
1741758047387110220,-0.169,,,,0.3559096309
1741758047394813924,-0.161,,,,0.3566800013
1741758047402517628,-0.154,,,,0.3574503717
1741758047410221332,-0.149,,,,0.3582207421
1741758047417925036,-0.147,,,,0.3589911125
1741758047425628740,-0.147,,,,0.3597614829
1741758047433332444,-0.137,,,,0.3605318533
1741758047441036148,-0.139,,,,0.3613022237
1741758047448739852,-0.166,,,,0.3620725941
1741758047456443556,-0.25,,,,0.3628429645
1741758047464147260,-0.284,,,,0.3636133349
1741758047471850964,0.019,,,,0.3643837053
1741758047479554668,0.65,,,,0.3651540757
1741758047487258372,1.185,,,,0.3659244461
1741758047494962076,1.089,,,,0.3666948165
1741758047502665780,0.304,,,,0.3674651869
1741758047510369484,-0.264,,,,0.3682355573
1741758047518073188,-0.166,,,,0.3690059277
1741758047525776892,-0.076,,,,0.3697762981
1741758047533480596,-0.201,,,,0.3705466685
1741758047541184300,-0.208,,,,0.3713170389
1741758047548888004,-0.147,,,,0.3720874093
1741758047556591708,-0.159,,,,0.3728577797
1741758047564295412,-0.161,,,,0.3736281501
1741758047571999116,-0.122,,,,0.3743985205
1741758047579702820,-0.11,,,,0.3751688909
1741758047587406524,-0.105,,,,0.3759392613
1741758047595110228,-0.08,,,,0.3767096317
1741758047602813932,-0.061,,,,0.3774800021
1741758047610517636,-0.044,,,,0.3782503725
1741758047618221340,-0.024,,,,0.3790207429
1741758047625925044,0.0,,,,0.3797911133
1741758047633628748,0.036,,,,0.3805614837
1741758047641332452,0.066,,,,0.3813318541
1741758047649036156,0.105,,,,0.3821022245
1741758047656739860,0.157,,,,0.3828725949
1741758047664443564,0.206,,,,0.3836429653
1741758047672147268,0.267,,,,0.3844133357
1741758047679850972,0.321,,,,0.3851837061
1741758047687554676,0.36,,,,0.3859540765
1741758047695258380,0.387,,,,0.3867244469
1741758047702962084,0.397,,,,0.3874948173
1741758047710665788,0.392,,,,0.3882651877
1741758047718369492,0.345,,,,0.3890355581
1741758047726073196,0.245,,,,0.3898059285
1741758047733776900,0.125,,,,0.3905762989
1741758047741480604,-0.009,,,,0.3913466693
1741758047749184308,-0.127,,,,0.3921170397
1741758047756888012,-0.211,,,,0.3928874101
1741758047764591769,-0.274,,,,0.3936577858
1741758047772295473,-0.306,,,,0.3944281562
1741758047779999177,-0.323,,,,0.3951985266
1741758047787702881,-0.328,,,,0.395968897
1741758047795406585,-0.318,,,,0.3967392674
1741758047803110289,-0.314,,,,0.3975096378
1741758047810813993,-0.299,,,,0.3982800082
1741758047818517697,-0.287,,,,0.3990503786
1741758047826221401,-0.277,,,,0.399820749
1741758047833925105,-0.262,,,,0.4005911194
1741758047841628809,-0.26,,,,0.4013614898
1741758047849332513,-0.25,,,,0.4021318602
1741758047857036217,-0.235,,,,0.4029022306
1741758047864739921,-0.23,,,,0.403672601
1741758047872443625,-0.218,,,,0.4044429714
1741758047880147329,-0.211,,,,0.4052133418
1741758047887851033,-0.208,,,,0.4059837122
1741758047895554737,-0.201,,,,0.4067540826
1741758047903258441,-0.206,,797.0,,0.407524453
1741758047910962145,-0.198,,,,0.4082948234
1741758047918665849,-0.191,,,,0.4090651938
1741758047926369553,-0.191,,,,0.4098355642
1741758047934073257,-0.186,,,,0.4106059346
1741758047941776961,-0.184,,,,0.411376305
1741758047949480665,-0.181,,,,0.4121466754
1741758047957184369,-0.174,,,,0.4129170458
1741758047964888073,-0.176,,,,0.4136874162
1741758047972591777,-0.184,,,,0.4144577866
1741758047980295481,-0.201,,,,0.415228157
1741758047987999185,-0.203,,,,0.4159985274
1741758047995702889,-0.184,,,,0.4167688978
1741758048003406593,-0.174,,,,0.4175392682
1741758048011110297,-0.159,,,,0.4183096386
1741758048018814001,-0.127,,,,0.419080009
1741758048026517705,-0.115,,,,0.4198503794
1741758048034221409,-0.134,,,,0.4206207498
1741758048041925113,-0.159,,,,0.4213911202
1741758048049628817,-0.161,,,,0.4221614906
1741758048057332521,-0.149,,,,0.422931861
1741758048065036225,-0.144,,,,0.4237022314
1741758048072739929,-0.142,,,,0.4244726018
1741758048080443633,-0.139,,,,0.4252429722
1741758048088147337,-0.137,,,,0.4260133426
1741758048095851041,-0.132,,,,0.426783713
1741758048103554745,-0.147,,,,0.4275540834
1741758048111258449,-0.206,,,,0.4283244538
1741758048118962153,-0.289,,,,0.4290948242
1741758048126665857,-0.154,,,,0.4298651946
1741758048134369561,0.38,,,,0.430635565
1741758048142073265,1.032,,,,0.4314059354
1741758048149776969,1.248,,,,0.4321763058
1741758048157480673,0.662,,,,0.4329466762
1741758048165184377,-0.122,,,,0.4337170466
1741758048172888081,-0.24,,,,0.434487417
1741758048180591785,-0.071,,,,0.4352577874
1741758048188295489,-0.152,,,,0.4360281578
1741758048195999193,-0.22,,,,0.4367985282
1741758048203702897,-0.164,,,,0.4375688986
1741758048211406601,-0.152,,,,0.438339269
1741758048219110305,-0.166,,,,0.4391096394
1741758048226814009,-0.137,,,,0.4398800098
1741758048234517713,-0.112,,,,0.4406503802
1741758048242221417,-0.11,,,,0.4414207506
1741758048249925121,-0.09,,,,0.442191121
1741758048257628825,-0.068,,,,0.4429614914
1741758048265332529,-0.058,,,,0.4437318618
1741758048273036233,-0.034,,,,0.4445022322
1741758048280739937,-0.009,,,,0.4452726026
1741758048288443641,0.017,,,,0.446042973
1741758048296147345,0.051,,,,0.4468133434
1741758048303851049,0.083,,,,0.4475837138
1741758048311554753,0.127,,,,0.4483540842
1741758048319258457,0.176,,,,0.4491244546
1741758048326962214,0.228,76.0,,,0.4498948303
1741758048334665918,0.282,,,,0.4506652007
1741758048342369622,0.323,,,,0.4514355711
1741758048350073326,0.358,,,,0.4522059415
1741758048357777030,0.375,,,,0.4529763119
1741758048365480734,0.368,,,,0.4537466823
1741758048373184438,0.345,,,,0.4545170527
1741758048380888142,0.279,,,,0.4552874231
1741758048388591846,0.169,,,,0.4560577935
1741758048396295550,0.044,,,,0.4568281639
1741758048403999254,-0.08,,,,0.4575985343
1741758048411702958,-0.181,,,,0.4583689047
1741758048419406662,-0.255,,,,0.4591392751
1741758048427110366,-0.304,,,,0.4599096455
1741758048434814070,-0.321,,,,0.4606800159
1741758048442517774,-0.328,,,,0.4614503863
1741758048450221478,-0.323,,,,0.4622207567
1741758048457925182,-0.316,,,,0.4629911271
1741758048465628886,-0.309,,,,0.4637614975
1741758048473332590,-0.296,,,,0.4645318679
1741758048481036294,-0.289,,,,0.4653022383
1741758048488739998,-0.279,,,,0.4660726087
1741758048496443702,-0.267,,,,0.4668429791
1741758048504147406,-0.257,,,,0.4676133495
1741758048511851110,-0.245,,,,0.4683837199
1741758048519554814,-0.24,,,,0.4691540903
1741758048527258518,-0.235,,,,0.4699244607
1741758048534962222,-0.22,,,,0.4706948311
1741758048542665926,-0.218,,,,0.4714652015
1741758048550369630,-0.218,,,,0.4722355719
1741758048558073334,-0.213,,,,0.4730059423
1741758048565777038,-0.213,,,,0.4737763127
1741758048573480742,-0.206,,,,0.4745466831
1741758048581184446,-0.203,,,,0.4753170535
1741758048588888150,-0.201,,,,0.4760874239
1741758048596591854,-0.198,,,,0.4768577943
1741758048604295558,-0.198,,,,0.4776281647
1741758048611999262,-0.191,,,,0.4783985351
1741758048619702966,-0.191,,,,0.4791689055
1741758048627406670,-0.188,,,,0.4799392759
1741758048635110374,-0.181,,,,0.4807096463
1741758048642814078,-0.186,,,,0.4814800167
1741758048650517782,-0.184,,,,0.4822503871
1741758048658221486,-0.174,,,,0.4830207575
1741758048665925190,-0.174,,,,0.4837911279
1741758048673628894,-0.174,,,,0.4845614983
1741758048681332598,-0.186,,781.0,,0.4853318687
1741758048689036302,-0.193,,,,0.4861022391
1741758048696740006,-0.188,,,,0.4868726095
1741758048704443710,-0.176,,,,0.4876429799
1741758048712147414,-0.161,,,,0.4884133503
1741758048719851118,-0.142,,,,0.4891837207
1741758048727554822,-0.115,,,,0.4899540911
1741758048735258526,-0.112,,,,0.4907244615
1741758048742962230,-0.147,,,,0.4914948319
1741758048750665934,-0.161,,,,0.4922652023
1741758048758369638,-0.157,,,,0.4930355727
1741758048766073342,-0.154,,,,0.4938059431
1741758048773777046,-0.147,,,,0.4945763135
1741758048781480750,-0.139,,,,0.4953466839
1741758048789184454,-0.137,,,,0.4961170543
1741758048796888158,-0.134,,,,0.4968874247
1741758048804591862,-0.139,,,,0.4976577951
1741758048812295566,-0.171,,,,0.4984281655
1741758048819999270,-0.277,,,,0.4991985359
1741758048827702974,-0.291,,,,0.4999689063
1741758048835406678,0.088,,,,0.5007392767
1741758048843110382,0.763,,,,0.5015096471
1741758048850814086,1.226,,,,0.5022800175
1741758048858517790,0.954,,,,0.5030503879
1741758048866221494,0.13,,,,0.5038207583
1741758048873925198,-0.277,,,,0.5045911287
1741758048881628902,-0.107,,,,0.5053614991
1741758048889332659,-0.078,77.0,,,0.5061318748
1741758048897036294,-0.208,,,,0.5069022383
1741758048904739929,-0.186,,,,0.5076726018
1741758048912443564,-0.142,,,,0.5084429653
1741758048920147199,-0.169,,,,0.5092133288
1741758048927850834,-0.159,,,,0.5099836923
1741758048935554469,-0.117,,,,0.5107540558
1741758048943258104,-0.115,,,,0.5115244193
1741758048950961739,-0.105,,,,0.5122947828
1741758048958665374,-0.078,,,,0.5130651463
1741758048966369009,-0.056,,,,0.5138355098
1741758048974072644,-0.036,,,,0.5146058733
1741758048981776279,-0.014,,,,0.5153762368
1741758048989479914,0.009,,,,0.5161466003
1741758048997183549,0.036,,,,0.5169169638
1741758049004887184,0.068,,,,0.5176873273
1741758049012590819,0.115,,,,0.5184576908
1741758049020294454,0.159,,,,0.5192280543
1741758049027998089,0.211,,,,0.5199984178
1741758049035701724,0.264,,,,0.5207687813
1741758049043405359,0.306,,,,0.5215391448
1741758049051108994,0.348,,,,0.5223095083
1741758049058812629,0.377,,,,0.5230798718
1741758049066516264,0.385,,,,0.5238502353
1741758049074219899,0.377,,,,0.5246205988
1741758049081923534,0.331,,,,0.5253909623
1741758049089627169,0.247,,,,0.5261613258
1741758049097330804,0.132,,,,0.5269316893
1741758049105034439,0.0,,,,0.5277020528
1741758049112738074,-0.117,,,,0.5284724163
1741758049120441709,-0.218,,,,0.5292427798
1741758049128145344,-0.282,,,,0.5300131433
1741758049135848979,-0.311,,,,0.5307835068
1741758049143552614,-0.333,,,,0.5315538703
1741758049151256249,-0.338,,,,0.5323242338
1741758049158959884,-0.338,,,,0.5330945973
1741758049166663519,-0.336,,,,0.5338649608
1741758049174367154,-0.316,,,,0.5346353243
1741758049182070789,-0.309,,,,0.5354056878
1741758049189774424,-0.299,,,,0.5361760513
1741758049197478059,-0.282,,,,0.5369464148
1741758049205181694,-0.277,,,,0.5377167783
1741758049212885329,-0.264,,,,0.5384871418
1741758049220588964,-0.255,,,,0.5392575053
1741758049228292599,-0.245,,,,0.5400278688
1741758049235996234,-0.235,,,,0.5407982323
1741758049243699869,-0.235,,,,0.5415685958
1741758049251403504,-0.225,,,,0.5423389593
1741758049259107139,-0.215,,,,0.5431093228
1741758049266810774,-0.215,,,,0.5438796863
1741758049274514409,-0.211,,,,0.5446500498
1741758049282218044,-0.208,,,,0.5454204133
1741758049289921679,-0.196,,,,0.5461907768
1741758049297625314,-0.191,,,,0.5469611403
1741758049305328949,-0.198,,,,0.5477315038
1741758049313032584,-0.196,,,,0.5485018673
1741758049320736219,-0.198,,,,0.5492722308
1741758049328439854,-0.196,,,,0.5500425943
1741758049336143489,-0.188,,,,0.5508129578
1741758049343847124,-0.186,,,,0.5515833213
1741758049351550759,-0.184,,,,0.5523536848
1741758049359254394,-0.184,,,,0.5531240483
1741758049366958029,-0.179,,,,0.5538944118
1741758049374661664,-0.169,,,,0.5546647753
1741758049382365299,-0.171,,,,0.5554351388
1741758049390068934,-0.171,,,,0.5562055023
1741758049397772569,-0.174,,,,0.5569758658
1741758049405476204,-0.188,,,,0.5577462293
1741758049413179839,-0.184,,,,0.5585165928
1741758049420883474,-0.166,,,,0.5592869563
1741758049428587109,-0.149,,,,0.5600573198
1741758049436290744,-0.134,,,,0.5608276833
1741758049443994379,-0.11,,759.0,,0.5615980468
1741758049451698017,-0.098,,,,0.5623684106
1741758049459401652,-0.125,,,,0.5631387741
1741758049467105287,-0.152,,,,0.5639091376
1741758049474808922,-0.154,,,,0.5646795011
1741758049482512557,-0.149,,,,0.5654498646
1741758049490216192,-0.139,,,,0.5662202281
1741758049497919827,-0.134,,,,0.5669905916
1741758049505623462,-0.134,,,,0.5677609551
1741758049513327097,-0.132,,,,0.5685313186
1741758049521030732,-0.132,,,,0.5693016821
1741758049528734367,-0.144,,,,0.5700720456
1741758049536438002,-0.215,,,,0.5708424091
1741758049544141637,-0.301,,,,0.5716127726
1741758049551845272,-0.09,,,,0.5723831361
1741758049559548907,0.522,,,,0.5731534996
1741758049567252542,1.116,,,,0.5739238631
1741758049574956177,1.138,,,,0.5746942266
1741758049582659812,0.444,,,,0.5754645901
1741758049590363447,-0.213,,,,0.5762349536
1741758049598067082,-0.181,,,,0.5770053171
1741758049605770717,-0.036,,,,0.5777756806
1741758049613474352,-0.161,,,,0.5785460441
1741758049621177987,-0.201,,,,0.5793164076
1741758049628881622,-0.132,,,,0.5800867711
1741758049636585257,-0.142,,,,0.5808571346
1741758049644288892,-0.159,,,,0.5816274981
1741758049651992527,-0.12,,,,0.5823978616
1741758049659696162,-0.103,,,,0.5831682251
1741758049667399797,-0.103,,,,0.5839385886
1741758049675103432,-0.076,,,,0.5847089521
1741758049682807067,-0.058,,,,0.5854793156
1741758049690510702,-0.044,,,,0.5862496791
1741758049698214337,-0.022,,,,0.5870200426
1741758049705917972,0.002,,,,0.5877904061
1741758049713621607,0.036,,,,0.5885607696
1741758049721325242,0.066,,,,0.5893311331
1741758049729028877,0.1,,,,0.5901014966
1741758049736732512,0.147,,,,0.5908718601
1741758049744436147,0.193,,,,0.5916422236
1741758049752139782,0.247,,,,0.5924125871
1741758049759843417,0.294,,,,0.5931829506
1741758049767547052,0.341,,,,0.5939533141
1741758049775250687,0.377,,,,0.5947236776
1741758049782954322,0.38,,,,0.5954940411
1741758049790657957,0.375,,,,0.5962644046
1741758049798361592,0.35,,,,0.5970347681
1741758049806065227,0.282,,,,0.5978051316
1741758049813768862,0.181,,,,0.5985754951
1741758049821472497,0.051,,,,0.5993458586
1741758049829176132,-0.073,,,,0.6001162221
1741758049836879767,-0.169,,,,0.6008865856
1741758049844583402,-0.242,,,,0.6016569491
1741758049852287037,-0.287,,,,0.6024273126
1741758049859990672,-0.309,,,,0.6031976761
1741758049867694307,-0.316,,,,0.6039680396
1741758049875397942,-0.314,,,,0.6047384031
1741758049883101577,-0.311,,,,0.6055087666
1741758049890805212,-0.299,,,,0.6062791301
1741758049898508847,-0.289,,,,0.6070494936
1741758049906212482,-0.284,,,,0.6078198571
1741758049913916117,-0.272,,,,0.6085902206
1741758049921619752,-0.262,,,,0.6093605841
1741758049929323387,-0.252,,,,0.6101309476
1741758049937027022,-0.24,,,,0.6109013111
1741758049944730657,-0.233,,,,0.6116716746
1741758049952434292,-0.22,,,,0.6124420381
1741758049960137927,-0.213,,,,0.6132124016
1741758049967841562,-0.206,,,,0.6139827651
1741758049975545197,-0.196,,,,0.6147531286
1741758049983248832,-0.193,,,,0.6155234921
1741758049990952467,-0.188,,,,0.6162938556
1741758049998656102,-0.184,,,,0.6170642191
1741758050006359737,-0.184,,,,0.6178345826
1741758050014063375,-0.179,78.0,,,0.6186049464
1741758050021767010,-0.176,,,,0.6193753099
1741758050029470645,-0.171,,,,0.6201456734
1741758050037174280,-0.169,,,,0.6209160369
1741758050044877915,-0.171,,,,0.6216864004
1741758050052581550,-0.164,,,,0.6224567639
1741758050060285185,-0.161,,,,0.6232271274
1741758050067988820,-0.161,,,,0.6239974909
1741758050075692455,-0.159,,,,0.6247678544
1741758050083396090,-0.161,,,,0.6255382179
1741758050091099725,-0.154,,,,0.6263085814
1741758050098803360,-0.149,,,,0.6270789449
1741758050106506995,-0.147,,,,0.6278493084
1741758050114210630,-0.137,,,,0.6286196719
1741758050121914265,-0.134,,,,0.6293900354
1741758050129617900,-0.137,,,,0.6301603989
1741758050137321535,-0.134,,,,0.6309307624
1741758050145025170,-0.132,,,,0.6317011259
1741758050152728805,-0.122,,,,0.6324714894
1741758050160432440,-0.122,,,,0.6332418529
1741758050168136075,-0.12,,727.0,,0.6340122164
1741758050175839710,-0.115,,,,0.6347825799
1741758050183543345,-0.12,,,,0.6355529434
1741758050191246980,-0.12,,,,0.6363233069
1741758050198950615,-0.125,,,,0.6370936704
1741758050206654250,-0.137,,,,0.6378640339
1741758050214357885,-0.139,,,,0.6386343974
1741758050222061520,-0.13,,,,0.6394047609
1741758050229765155,-0.115,,,,0.6401751244
1741758050237468790,-0.103,,,,0.6409454879
1741758050245172425,-0.085,,,,0.6417158514
1741758050252876060,-0.063,,,,0.6424862149
1741758050260579695,-0.08,,,,0.6432565784
1741758050268283330,-0.103,,,,0.6440269419
1741758050275986965,-0.107,,,,0.6447973054
1741758050283690600,-0.115,,,,0.6455676689
1741758050291394235,-0.107,,,,0.6463380324
1741758050299097870,-0.103,,,,0.6471083959
1741758050306801505,-0.103,,,,0.6478787594
1741758050314505140,-0.098,,,,0.6486491229
1741758050322208775,-0.103,,,,0.6494194864
1741758050329912410,-0.117,,,,0.6501898499
1741758050337616045,-0.188,,,,0.6509602134
1741758050345319680,-0.287,,,,0.6517305769
1741758050353023315,-0.137,,,,0.6525009404
1741758050360726950,0.419,,,,0.6532713039
1741758050368430585,1.106,,,,0.6540416674
1741758050376134220,1.374,,,,0.6548120309
1741758050383837855,0.792,,,,0.6555823944
1741758050391541490,-0.061,,,,0.6563527579
1741758050399245125,-0.235,,,,0.6571231214
1741758050406948760,-0.056,,,,0.6578934849
1741758050414652395,-0.132,,,,0.6586638484
1741758050422356030,-0.223,,,,0.6594342119
1741758050430059665,-0.161,,,,0.6602045754
1741758050437763300,-0.144,,,,0.6609749389
1741758050445466935,-0.171,,,,0.6617453024
1741758050453170570,-0.139,,,,0.6625156659
1741758050460874205,-0.115,,,,0.6632860294
1741758050468577840,-0.115,,,,0.6640563929
1741758050476281475,-0.095,,,,0.6648267564
1741758050483985110,-0.076,,,,0.6655971199
1741758050491688745,-0.058,,,,0.6663674834
1741758050499392380,-0.041,,,,0.6671378469
1741758050507096015,-0.019,,,,0.6679082104
1741758050514799650,0.007,,,,0.6686785739
1741758050522503285,0.029,,,,0.6694489374
1741758050530206920,0.063,,,,0.6702193009
1741758050537910555,0.105,,,,0.6709896644
1741758050545614190,0.144,,,,0.6717600279
1741758050553317825,0.198,,,,0.6725303914
1741758050561021460,0.252,,,,0.6733007549
1741758050568725095,0.296,,,,0.6740711184
1741758050576428733,0.333,,,,0.6748414822
1741758050584132646,0.355,,,,0.6756118735
1741758050591836559,0.368,,,,0.6763822648
1741758050599540472,0.358,,,,0.6771526561
1741758050607244385,0.318,,,,0.6779230474
1741758050614948298,0.242,,,,0.6786934387
1741758050622652211,0.127,,,,0.67946383
1741758050630356124,0.004,,,,0.6802342213
1741758050638060037,-0.098,,,,0.6810046126
1741758050645763950,-0.186,,,,0.6817750039
1741758050653467863,-0.245,,,,0.6825453952
1741758050661171776,-0.284,,,,0.6833157865
1741758050668875689,-0.304,,,,0.6840861778
1741758050676579602,-0.306,,,,0.6848565691
1741758050684283515,-0.306,,,,0.6856269604
1741758050691987428,-0.296,,,,0.6863973517
1741758050699691341,-0.289,,,,0.687167743
1741758050707395254,-0.282,,,,0.6879381343
1741758050715099167,-0.264,,,,0.6887085256
1741758050722803080,-0.26,,,,0.6894789169
1741758050730506993,-0.252,,,,0.6902493082
1741758050738210906,-0.242,,,,0.6910196995
1741758050745914819,-0.233,,,,0.6917900908
1741758050753618732,-0.218,,,,0.6925604821
1741758050761322645,-0.215,,,,0.6933308734
1741758050769026558,-0.213,,,,0.6941012647
1741758050776730471,-0.203,,,,0.694871656
1741758050784434384,-0.203,,,,0.6956420473
1741758050792138297,-0.198,,,,0.6964124386
1741758050799842210,-0.191,,,,0.6971828299
1741758050807546123,-0.186,,,,0.6979532212
1741758050815250036,-0.181,,,,0.6987236125
1741758050822953949,-0.186,,654.0,,0.6994940038
1741758050830657862,-0.184,,,,0.7002643951
1741758050838361775,-0.179,,,,0.7010347864
1741758050846065688,-0.179,,,,0.7018051777
1741758050853769601,-0.171,,,,0.702575569
1741758050861473514,-0.174,,,,0.7033459603
1741758050869177427,-0.174,,,,0.7041163516
1741758050876881340,-0.164,,,,0.7048867429
1741758050884585253,-0.161,,,,0.7056571342
1741758050892289166,-0.157,,,,0.7064275255
1741758050899993079,-0.154,,,,0.7071979168
1741758050907696992,-0.152,,,,0.7079683081
1741758050915400905,-0.147,,,,0.7087386994
1741758050923104818,-0.149,,,,0.7095090907
1741758050930808731,-0.147,,,,0.710279482
1741758050938512644,-0.142,,,,0.7110498733
1741758050946216557,-0.142,,,,0.7118202646
1741758050953920470,-0.137,,,,0.7125906559
1741758050961624383,-0.137,,,,0.7133610472
1741758050969328296,-0.134,,,,0.7141314385
1741758050977032209,-0.13,,,,0.7149018298
1741758050984736122,-0.13,,,,0.7156722211
1741758050992440035,-0.127,,,,0.7164426124
1741758051000143948,-0.122,,,,0.7172130037
1741758051007847861,-0.122,,,,0.717983395
1741758051015551774,-0.12,,,,0.7187537863
1741758051023255687,-0.125,,,,0.7195241776
1741758051030959600,-0.122,,,,0.7202945689
1741758051038663513,-0.12,,,,0.7210649602
1741758051046367426,-0.13,,,,0.7218353515
1741758051054071339,-0.144,,,,0.7226057428
1741758051061775252,-0.147,,,,0.7233761341
1741758051069479165,-0.127,,,,0.7241465254
1741758051077183078,-0.112,,,,0.7249169167
1741758051084886991,-0.103,,,,0.725687308
1741758051092590904,-0.073,,,,0.7264576993
1741758051100294817,-0.073,,,,0.7272280906
1741758051107998730,-0.1,,,,0.7279984819
1741758051115702643,-0.112,,,,0.7287688732
1741758051123406556,-0.122,,,,0.7295392645
1741758051131110469,-0.117,,,,0.7303096558
1741758051138814439,-0.105,79.0,,,0.7310800528
1741758051146518143,-0.105,,,,0.7318504232
1741758051154221847,-0.105,,,,0.7326207936
1741758051161925551,-0.107,,,,0.733391164
1741758051169629255,-0.11,,,,0.7341615344
1741758051177332959,-0.154,,,,0.7349319048
1741758051185036663,-0.264,,,,0.7357022752
1741758051192740367,-0.247,,,,0.7364726456
1741758051200444071,0.161,,,,0.737243016
1741758051208147775,0.875,,,,0.7380133864
1741758051215851479,1.41,,,,0.7387837568
1741758051223555183,1.148,,,,0.7395541272
1741758051231258887,0.23,,,,0.7403244976
1741758051238962591,-0.262,,,,0.741094868
1741758051246666295,-0.107,,,,0.7418652384
1741758051254369999,-0.073,,,,0.7426356088
1741758051262073703,-0.213,,,,0.7434059792
1741758051269777407,-0.188,,,,0.7441763496
1741758051277481111,-0.139,,,,0.74494672
1741758051285184815,-0.169,,,,0.7457170904
1741758051292888519,-0.157,,,,0.7464874608
1741758051300592223,-0.125,,,,0.7472578312
1741758051308295927,-0.12,,,,0.7480282016
1741758051315999631,-0.103,,,,0.748798572
1741758051323703335,-0.08,,,,0.7495689424
1741758051331407039,-0.068,,,,0.7503393128
1741758051339110743,-0.053,,,,0.7511096832
1741758051346814447,-0.034,,,,0.7518800536
1741758051354518151,-0.002,,,,0.752650424
1741758051362221855,0.019,,,,0.7534207944
1741758051369925559,0.049,,,,0.7541911648
1741758051377629263,0.088,,,,0.7549615352
1741758051385332967,0.125,,,,0.7557319056
1741758051393036671,0.176,,,,0.756502276
1741758051400740375,0.228,,,,0.7572726464
1741758051408444079,0.277,,,,0.7580430168
1741758051416147783,0.321,,,,0.7588133872
1741758051423851487,0.348,,,,0.7595837576
1741758051431555191,0.368,,,,0.760354128
1741758051439258895,0.368,,,,0.7611244984
1741758051446962599,0.338,,,,0.7618948688
1741758051454666303,0.284,,,,0.7626652392
1741758051462370007,0.184,,,,0.7634356096
1741758051470073711,0.058,,,,0.76420598
1741758051477777415,-0.058,,,,0.7649763504
1741758051485481119,-0.161,,658.0,,0.7657467208
1741758051493184823,-0.233,,,,0.7665170912
1741758051500888527,-0.282,,,,0.7672874616
1741758051508592231,-0.306,,,,0.768057832
1741758051516295935,-0.316,,,,0.7688282024
1741758051523999639,-0.321,,,,0.7695985728
1741758051531703343,-0.311,,,,0.7703689432
1741758051539407047,-0.299,,,,0.7711393136
1741758051547110751,-0.291,,,,0.771909684
1741758051554814455,-0.274,,,,0.7726800544
1741758051562518159,-0.267,,,,0.7734504248
1741758051570221863,-0.26,,,,0.7742207952
1741758051577925567,-0.245,,,,0.7749911656
1741758051585629271,-0.24,,,,0.775761536
1741758051593332975,-0.23,,,,0.7765319064
1741758051601036679,-0.223,,,,0.7773022768
1741758051608740383,-0.218,,,,0.7780726472
1741758051616444087,-0.213,,,,0.7788430176
1741758051624147791,-0.211,,,,0.779613388
1741758051631851495,-0.203,,,,0.7803837584
1741758051639555199,-0.201,,,,0.7811541288
1741758051647258903,-0.201,,,,0.7819244992
1741758051654962607,-0.193,,,,0.7826948696
1741758051662666311,-0.188,,,,0.78346524
1741758051670370015,-0.186,,,,0.7842356104
1741758051678073719,-0.184,,,,0.7850059808
1741758051685777423,-0.186,,,,0.7857763512
1741758051693481127,-0.181,,,,0.7865467216
1741758051701184884,-0.179,,,,0.7873170973
1741758051708888588,-0.176,,,,0.7880874677
1741758051716592292,-0.174,,,,0.7888578381
1741758051724295996,-0.176,,,,0.7896282085
1741758051731999700,-0.169,,,,0.7903985789
1741758051739703404,-0.166,,,,0.7911689493
1741758051747407108,-0.166,,,,0.7919393197
1741758051755110812,-0.159,,,,0.7927096901
1741758051762814516,-0.159,,,,0.7934800605
1741758051770518220,-0.152,,,,0.7942504309
1741758051778221924,-0.147,,,,0.7950208013
1741758051785925628,-0.149,,,,0.7957911717
1741758051793629332,-0.144,,,,0.7965615421
1741758051801333036,-0.144,,,,0.7973319125
1741758051809036740,-0.142,,,,0.7981022829
1741758051816740444,-0.139,,,,0.7988726533
1741758051824444148,-0.144,,,,0.7996430237
1741758051832147852,-0.139,,,,0.8004133941
1741758051839851556,-0.137,,,,0.8011837645
1741758051847555260,-0.139,,,,0.8019541349
1741758051855258964,-0.134,,,,0.8027245053
1741758051862962668,-0.134,,,,0.8034948757
1741758051870666372,-0.13,,,,0.8042652461
1741758051878370076,-0.13,,,,0.8050356165
1741758051886073780,-0.134,,,,0.8058059869
1741758051893777484,-0.134,,,,0.8065763573
1741758051901481188,-0.137,,,,0.8073467277
1741758051909184892,-0.142,,,,0.8081170981
1741758051916888596,-0.139,,,,0.8088874685
1741758051924592300,-0.127,,,,0.8096578389
1741758051932296004,-0.095,,,,0.8104282093
1741758051939999708,-0.078,,,,0.8111985797
1741758051947703412,-0.103,,,,0.8119689501
1741758051955407116,-0.127,,,,0.8127393205
1741758051963110820,-0.137,,,,0.8135096909
1741758051970814524,-0.127,,,,0.8142800613
1741758051978518228,-0.117,,,,0.8150504317
1741758051986221932,-0.117,,,,0.8158208021
1741758051993925636,-0.115,,,,0.8165911725
1741758052001629340,-0.115,,,,0.8173615429
1741758052009333044,-0.125,,,,0.8181319133
1741758052017036748,-0.171,,,,0.8189022837
1741758052024740452,-0.279,,,,0.8196726541
1741758052032444156,-0.23,,,,0.8204430245
1741758052040147860,0.213,,,,0.8212133949
1741758052047851564,0.917,,,,0.8219837653
1741758052055555268,1.371,,,,0.8227541357
1741758052063258972,1.005,,,,0.8235245061
1741758052070962676,0.107,,,,0.8242948765
1741758052078666380,-0.264,,,,0.8250652469
1741758052086370084,-0.09,,,,0.8258356173
1741758052094073788,-0.098,,,,0.8266059877
1741758052101777492,-0.225,,,,0.8273763581
1741758052109481196,-0.184,,,,0.8281467285
1741758052117184900,-0.139,,,,0.8289170989
1741758052124888604,-0.169,,,,0.8296874693
1741758052132592308,-0.154,,,,0.8304578397
1741758052140296012,-0.125,,,,0.8312282101
1741758052147999716,-0.12,,,,0.8319985805
1741758052155703420,-0.105,,,,0.8327689509
1741758052163407124,-0.085,,,,0.8335393213
1741758052171110828,-0.063,,,,0.8343096917
1741758052178814532,-0.046,,,,0.8350800621
1741758052186518236,-0.029,,704.0,,0.8358504325
1741758052194221940,0.0,,,,0.8366208029
1741758052201925644,0.024,,,,0.8373911733
1741758052209629348,0.053,,,,0.8381615437
1741758052217333052,0.095,,,,0.8389319141
1741758052225036756,0.142,,,,0.8397022845
1741758052232740460,0.196,,,,0.8404726549
1741758052240444164,0.245,,,,0.8412430253
1741758052248147868,0.291,,,,0.8420133957
1741758052255851572,0.341,,,,0.8427837661
1741758052263555329,0.363,80.0,,,0.8435541418
1741758052271258964,0.375,,,,0.8443245053
1741758052278962599,0.375,,,,0.8450948688
1741758052286666234,0.343,,,,0.8458652323
1741758052294369869,0.274,,,,0.8466355958
1741758052302073504,0.164,,,,0.8474059593
1741758052309777139,0.036,,,,0.8481763228
1741758052317480774,-0.076,,,,0.8489466863
1741758052325184409,-0.181,,,,0.8497170498
1741758052332888044,-0.25,,,,0.8504874133
1741758052340591679,-0.294,,,,0.8512577768
1741758052348295314,-0.321,,,,0.8520281403
1741758052355998949,-0.328,,,,0.8527985038
1741758052363702584,-0.331,,,,0.8535688673
1741758052371406219,-0.321,,,,0.8543392308
1741758052379109854,-0.311,,,,0.8551095943
1741758052386813489,-0.306,,,,0.8558799578
1741758052394517124,-0.294,,,,0.8566503213
1741758052402220759,-0.287,,,,0.8574206848
1741758052409924394,-0.277,,,,0.8581910483
1741758052417628029,-0.26,,,,0.8589614118
1741758052425331664,-0.252,,,,0.8597317753
1741758052433035299,-0.245,,,,0.8605021388
1741758052440738934,-0.238,,,,0.8612725023
1741758052448442569,-0.233,,,,0.8620428658
1741758052456146204,-0.225,,,,0.8628132293
1741758052463849839,-0.225,,,,0.8635835928
1741758052471553474,-0.213,,,,0.8643539563
1741758052479257109,-0.206,,,,0.8651243198
1741758052486960744,-0.208,,,,0.8658946833
1741758052494664379,-0.203,,,,0.8666650468
1741758052502368014,-0.203,,,,0.8674354103
1741758052510071649,-0.201,,,,0.8682057738
1741758052517775284,-0.201,,,,0.8689761373
1741758052525478919,-0.203,,,,0.8697465008
1741758052533182554,-0.191,,,,0.8705168643
1741758052540886189,-0.184,,,,0.8712872278
1741758052548589824,-0.188,,,,0.8720575913
1741758052556293459,-0.188,,,,0.8728279548
1741758052563997094,-0.191,,,,0.8735983183
1741758052571700729,-0.184,,,,0.8743686818
1741758052579404364,-0.181,,,,0.8751390453
1741758052587107999,-0.184,,,,0.8759094088
1741758052594811634,-0.174,,,,0.8766797723
1741758052602515269,-0.169,,,,0.8774501358
1741758052610218904,-0.166,,,,0.8782204993
1741758052617922539,-0.164,,,,0.8789908628
1741758052625626174,-0.169,,,,0.8797612263
1741758052633329809,-0.161,,,,0.8805315898
1741758052641033444,-0.157,,,,0.8813019533
1741758052648737079,-0.157,,,,0.8820723168
1741758052656440714,-0.157,,,,0.8828426803
1741758052664144349,-0.157,,,,0.8836130438
1741758052671847984,-0.147,,,,0.8843834073
1741758052679551619,-0.144,,,,0.8851537708
1741758052687255254,-0.149,,,,0.8859241343
1741758052694958889,-0.142,,,,0.8866944978
1741758052702662524,-0.139,,,,0.8874648613
1741758052710366159,-0.139,,,,0.8882352248
1741758052718069794,-0.142,,,,0.8890055883
1741758052725773429,-0.137,,,,0.8897759518
1741758052733477064,-0.122,,,,0.8905463153
1741758052741180699,-0.134,,,,0.8913166788
1741758052748884334,-0.149,,,,0.8920870423
1741758052756587969,-0.117,,,,0.8928574058
1741758052764291604,-0.09,,,,0.8936277693
1741758052771995239,-0.095,,,,0.8943981328
1741758052779698874,-0.117,,,,0.8951684963
1741758052787402509,-0.134,,,,0.8959388598
1741758052795106144,-0.142,,,,0.8967092233
1741758052802809779,-0.134,,,,0.8974795868
1741758052810513414,-0.125,,,,0.8982499503
1741758052818217049,-0.127,,,,0.8990203138
1741758052825920687,-0.132,,,,0.8997906776
1741758052833624043,-0.122,,,,0.9005610132
1741758052841327399,-0.132,,,,0.9013313488
1741758052849030755,-0.193,,,,0.9021016844
1741758052856734111,-0.269,,,,0.90287202
1741758052864437467,-0.125,,,,0.9036423556
1741758052872140823,0.439,,,,0.9044126912
1741758052879844179,1.067,,,,0.9051830268
1741758052887547535,1.197,,,,0.9059533624
1741758052895250891,0.586,,,,0.906723698
1741758052902954247,-0.157,,719.0,,0.9074940336
1741758052910657603,-0.213,,,,0.9082643692
1741758052918360959,-0.024,,,,0.9090347048
1741758052926064315,-0.137,,,,0.9098050404
1741758052933767671,-0.203,,,,0.910575376
1741758052941471027,-0.13,,,,0.9113457116
1741758052949174383,-0.13,,,,0.9121160472
1741758052956877739,-0.144,,,,0.9128863828
1741758052964581095,-0.115,,,,0.9136567184
1741758052972284451,-0.093,,,,0.914427054
1741758052979987807,-0.093,,,,0.9151973896
1741758052987691163,-0.071,,,,0.9159677252
1741758052995394519,-0.041,,,,0.9167380608
1741758053003097875,-0.034,,,,0.9175083964
1741758053010801231,-0.022,,,,0.918278732
1741758053018504587,0.012,,,,0.9190490676
1741758053026207943,0.051,,,,0.9198194032
1741758053033911299,0.088,,,,0.9205897388
1741758053041614655,0.12,,,,0.9213600744
1741758053049318011,0.161,,,,0.92213041
1741758053057021367,0.211,,,,0.9229007456
1741758053064724723,0.262,,,,0.9236710812
1741758053072428079,0.323,,,,0.9244414168
1741758053080131435,0.375,,,,0.9252117524
1741758053087834791,0.402,,,,0.925982088
1741758053095538147,0.424,,,,0.9267524236
1741758053103241503,0.431,,,,0.9275227592
1741758053110944859,0.422,,,,0.9282930948
1741758053118648215,0.37,,,,0.9290634304
1741758053126351571,0.267,,,,0.929833766
1741758053134054927,0.139,,,,0.9306041016
1741758053141758283,0.0,,,,0.9313744372
1741758053149461639,-0.122,,,,0.9321447728
1741758053157164995,-0.213,,,,0.9329151084
1741758053164868351,-0.284,,,,0.933685444
1741758053172571707,-0.323,,,,0.9344557796
1741758053180275063,-0.345,,,,0.9352261152
1741758053187978419,-0.355,,,,0.9359964508
1741758053195681775,-0.35,,,,0.9367667864
1741758053203385131,-0.343,,,,0.937537122
1741758053211088487,-0.328,,,,0.9383074576
1741758053218791843,-0.318,,,,0.9390777932
1741758053226495199,-0.311,,,,0.9398481288
1741758053234198555,-0.296,,,,0.9406184644
1741758053241901911,-0.289,,,,0.9413888
1741758053249605267,-0.279,,,,0.9421591356
1741758053257308623,-0.267,,,,0.9429294712
1741758053265011979,-0.257,,,,0.9436998068
1741758053272715335,-0.245,,,,0.9444701424
1741758053280418691,-0.235,,,,0.945240478
1741758053288122047,-0.23,,,,0.9460108136
1741758053295825403,-0.223,,,,0.9467811492
1741758053303528759,-0.22,,,,0.9475514848
1741758053311232115,-0.211,,,,0.9483218204
1741758053318935471,-0.206,,,,0.949092156
1741758053326638827,-0.208,,,,0.9498624916
1741758053334342183,-0.198,,,,0.9506328272
1741758053342045539,-0.193,,,,0.9514031628
1741758053349748895,-0.196,,,,0.9521734984
1741758053357452251,-0.193,,,,0.952943834
1741758053365155607,-0.196,,,,0.9537141696
1741758053372858963,-0.191,,,,0.9544845052
1741758053380562319,-0.188,,,,0.9552548408
1741758053388265701,-0.186,80.0,,,0.956025179
1741758053395969405,-0.179,,,,0.9567955494
1741758053403673109,-0.181,,,,0.9575659198
1741758053411376813,-0.184,,,,0.9583362902
1741758053419080517,-0.179,,,,0.9591066606
1741758053426784221,-0.169,,,,0.959877031
1741758053434487925,-0.161,,,,0.9606474014
1741758053442191629,-0.166,,,,0.9614177718
1741758053449895333,-0.169,,,,0.9621881422
1741758053457599037,-0.159,,,,0.9629585126
1741758053465302741,-0.154,,,,0.963728883
1741758053473006445,-0.157,,,,0.9644992534
1741758053480710149,-0.161,,,,0.9652696238
1741758053488413853,-0.161,,,,0.9660399942
1741758053496117557,-0.137,,,,0.9668103646
1741758053503821261,-0.11,,,,0.967580735
1741758053511524965,-0.1,,,,0.9683511054
1741758053519228669,-0.117,,,,0.9691214758
1741758053526932373,-0.144,,,,0.9698918462
1741758053534636077,-0.147,,,,0.9706622166
1741758053542339781,-0.139,,,,0.971432587
1741758053550043485,-0.132,,,,0.9722029574
1741758053557747189,-0.13,,,,0.9729733278
1741758053565450893,-0.132,,,,0.9737436982
1741758053573154597,-0.127,,,,0.9745140686
1741758053580858301,-0.127,,,,0.975284439
1741758053588562005,-0.159,,,,0.9760548094
1741758053596265709,-0.245,,,,0.9768251798
1741758053603969413,-0.238,,,,0.9775955502
1741758053611673117,0.159,,,,0.9783659206
1741758053619376821,0.782,,,,0.979136291
1741758053627080525,1.109,,,,0.9799066614
1741758053634784229,0.809,,,,0.9806770318
1741758053642487933,0.085,,,,0.9814474022
1741758053650191637,-0.262,,,,0.9822177726
1741758053657895341,-0.09,,,,0.982988143
1741758053665599045,-0.066,,,,0.9837585134
1741758053673302749,-0.188,,,,0.9845288838
1741758053681006453,-0.164,,,,0.9852992542
1741758053688710157,-0.122,,,,0.9860696246
1741758053696413861,-0.142,,,,0.986839995
1741758053704117565,-0.132,,,,0.9876103654
1741758053711821269,-0.1,,804.0,,0.9883807358
1741758053719524973,-0.09,,,,0.9891511062
1741758053727228677,-0.08,,,,0.9899214766
1741758053734932381,-0.058,,,,0.990691847
1741758053742636085,-0.049,,,,0.9914622174
1741758053750339789,-0.029,,,,0.9922325878
1741758053758043493,0.004,,,,0.9930029582
1741758053765747197,0.031,,,,0.9937733286
1741758053773450901,0.061,,,,0.994543699
1741758053781154605,0.093,,,,0.9953140694
1741758053788858309,0.134,,,,0.9960844398
1741758053796562013,0.186,,,,0.9968548102
1741758053804265717,0.235,,,,0.9976251806
1741758053811969421,0.294,,,,0.998395551
1741758053819673125,0.345,,,,0.9991659214
1741758053827376829,0.382,,,,0.9999362918
1741758053835080533,0.409,,,,1.0007066622
1741758053842784237,0.412,,,,1.0014770326
1741758053850487941,0.402,,,,1.002247403
1741758053858191645,0.363,,,,1.0030177734
1741758053865895349,0.269,,,,1.0037881438
1741758053873599053,0.147,,,,1.0045585142
1741758053881302757,0.014,,,,1.0053288846
1741758053889006461,-0.112,,,,1.006099255
1741758053896710165,-0.211,,,,1.0068696254
1741758053904413869,-0.277,,,,1.0076399958
1741758053912117573,-0.306,,,,1.0084103662
1741758053919821277,-0.321,,,,1.0091807366
1741758053927524981,-0.326,,,,1.009951107
1741758053935228685,-0.318,,,,1.0107214774
1741758053942932389,-0.314,,,,1.0114918478
1741758053950636146,-0.306,80.0,,,1.0122622235
1741758053958339571,-0.296,,,,1.013032566
1741758053966042996,-0.291,,,,1.0138029085
1741758053973746421,-0.282,,,,1.014573251
1741758053981449846,-0.272,,,,1.0153435935
1741758053989153271,-0.26,,,,1.016113936
1741758053996856696,-0.247,,,,1.0168842785
1741758054004560121,-0.245,,,,1.017654621
1741758054012263546,-0.228,,,,1.0184249635
1741758054019966971,-0.215,,,,1.019195306
1741758054027670396,-0.211,,,,1.0199656485
1741758054035373821,-0.198,,,,1.020735991
1741758054043077246,-0.196,,,,1.0215063335
1741758054050780671,-0.191,,,,1.022276676
1741758054058484096,-0.184,,,,1.0230470185
1741758054066187521,-0.186,,,,1.023817361
1741758054073890946,-0.184,,,,1.0245877035
1741758054081594371,-0.181,,,,1.025358046
1741758054089297796,-0.174,,,,1.0261283885
1741758054097001221,-0.169,,,,1.026898731
1741758054104704646,-0.179,,,,1.0276690735
1741758054112408071,-0.181,,,,1.028439416
1741758054120111496,-0.174,,,,1.0292097585
1741758054127814921,-0.166,,,,1.029980101
1741758054135518346,-0.154,,,,1.0307504435
1741758054143221771,-0.157,,,,1.031520786
1741758054150925196,-0.157,,,,1.0322911285
1741758054158628621,-0.149,,,,1.033061471
1741758054166332046,-0.154,,,,1.0338318135
1741758054174035471,-0.154,,,,1.034602156
1741758054181738896,-0.157,,,,1.0353724985
1741758054189442321,-0.157,,,,1.036142841
1741758054197145746,-0.152,,,,1.0369131835
1741758054204849171,-0.154,,,,1.037683526
1741758054212552596,-0.152,,,,1.0384538685
1741758054220256021,-0.139,,,,1.039224211
1741758054227959446,-0.134,,,,1.0399945535
1741758054235662871,-0.139,,,,1.040764896
1741758054243366296,-0.157,,,,1.0415352385
1741758054251069721,-0.157,,,,1.042305581
1741758054258773146,-0.122,,,,1.0430759235
1741758054266476571,-0.1,,,,1.043846266
1741758054274179996,-0.105,,,,1.0446166085
1741758054281883421,-0.11,,,,1.045386951
1741758054289586846,-0.12,,,,1.0461572935
1741758054297290271,-0.127,,,,1.046927636
1741758054304993696,-0.12,,,,1.0476979785
1741758054312697121,-0.112,,,,1.048468321
1741758054320400546,-0.12,,,,1.0492386635
1741758054328103971,-0.115,,,,1.050009006
1741758054335807396,-0.105,,,,1.0507793485
1741758054343510821,-0.132,,,,1.051549691
1741758054351214246,-0.206,,,,1.0523200335
1741758054358917671,-0.306,,,,1.053090376
1741758054366621096,-0.211,,,,1.0538607185
1741758054374324521,0.296,,,,1.054631061
1741758054382027946,0.978,,,,1.0554014035
1741758054389731371,1.347,,,,1.056171746
1741758054397434796,0.937,,,,1.0569420885
1741758054405138221,0.058,,,,1.057712431
1741758054412841646,-0.264,,,,1.0584827735
1741758054420545071,-0.095,,,,1.059253116
1741758054428248496,-0.12,,,,1.0600234585
1741758054435951921,-0.225,,,,1.060793801
1741758054443655346,-0.186,,,,1.0615641435
1741758054451358771,-0.154,,,,1.062334486
1741758054459062196,-0.176,,,,1.0631048285
1741758054466765621,-0.161,,,,1.063875171
1741758054474469046,-0.125,,,,1.0646455135
1741758054482172471,-0.12,,,,1.065415856
1741758054489875896,-0.112,,,,1.0661861985
1741758054497579321,-0.088,,,,1.066956541
1741758054505282746,-0.073,,,,1.0677268835
1741758054512986243,-0.056,,,,1.0684972332
1741758054520689878,-0.041,,,,1.0692675967
1741758054528393513,-0.026,,,,1.0700379602
1741758054536097148,0.007,,,,1.0708083237
1741758054543800783,0.036,,,,1.0715786872
1741758054551504418,0.063,,843.0,,1.0723490507
1741758054559208053,0.107,,,,1.0731194142
1741758054566911688,0.166,,,,1.0738897777
1741758054574615323,0.228,,,,1.0746601412
1741758054582318958,0.277,,,,1.0754305047
1741758054590022593,0.316,,,,1.0762008682
1741758054597726228,0.336,,,,1.0769712317
1741758054605429863,0.343,,,,1.0777415952
1741758054613133498,0.345,,,,1.0785119587
1741758054620837133,0.309,,,,1.0792823222
1741758054628540768,0.233,,,,1.0800526857
1741758054636244403,0.125,,,,1.0808230492
1741758054643948038,-0.007,,,,1.0815934127
1741758054651651673,-0.115,,,,1.0823637762
1741758054659355308,-0.188,,,,1.0831341397
1741758054667058943,-0.247,,,,1.0839045032
1741758054674762578,-0.284,,,,1.0846748667
1741758054682466213,-0.304,,,,1.0854452302
1741758054690169848,-0.309,,,,1.0862155937
1741758054697873483,-0.304,,,,1.0869859572
1741758054705577118,-0.299,,,,1.0877563207
1741758054713280753,-0.289,,,,1.0885266842
1741758054720984388,-0.277,,,,1.0892970477
1741758054728688023,-0.269,,,,1.0900674112
1741758054736391658,-0.262,,,,1.0908377747
1741758054744095293,-0.245,,,,1.0916081382
1741758054751798928,-0.238,,,,1.0923785017
1741758054759502563,-0.238,,,,1.0931488652
1741758054767206198,-0.228,,,,1.0939192287
1741758054774909833,-0.218,,,,1.0946895922
1741758054782613468,-0.215,,,,1.0954599557
1741758054790317103,-0.213,,,,1.0962303192
1741758054798020738,-0.201,,,,1.0970006827
1741758054805724373,-0.201,,,,1.0977710462
1741758054813428008,-0.211,,,,1.0985414097
1741758054821131643,-0.198,,,,1.0993117732
1741758054828835278,-0.176,,,,1.1000821367
1741758054836538913,-0.181,,,,1.1008525002
1741758054844242548,-0.188,,,,1.1016228637
1741758054851946183,-0.179,,,,1.1023932272
1741758054859649818,-0.181,,,,1.1031635907
1741758054867353453,-0.186,,,,1.1039339542
1741758054875057088,-0.181,,,,1.1047043177
1741758054882760723,-0.176,,,,1.1054746812
1741758054890464358,-0.166,,,,1.1062450447
1741758054898167993,-0.161,,,,1.1070154082
1741758054905871628,-0.164,,,,1.1077857717
1741758054913575263,-0.149,,,,1.1085561352
1741758054921278898,-0.144,,,,1.1093264987
1741758054928982533,-0.157,,,,1.1100968622
1741758054936686168,-0.157,,,,1.1108672257
1741758054944389803,-0.149,,,,1.1116375892
1741758054952093438,-0.137,,,,1.1124079527
1741758054959797073,-0.139,,,,1.1131783162
1741758054967500708,-0.149,,,,1.1139486797
1741758054975204343,-0.132,,,,1.1147190432
1741758054982907978,-0.117,,,,1.1154894067
1741758054990611613,-0.125,,,,1.1162597702
1741758054998315248,-0.142,,,,1.1170301337
1741758055006018883,-0.149,,,,1.1178004972
1741758055013722518,-0.139,,,,1.1185708607
1741758055021426153,-0.132,,,,1.1193412242
1741758055029129788,-0.122,,,,1.1201115877
1741758055036833423,-0.107,,,,1.1208819512
1741758055044537058,-0.09,,,,1.1216523147
1741758055052240693,-0.09,,,,1.1224226782
1741758055059944328,-0.127,,,,1.1231930417
1741758055067647963,-0.137,,,,1.1239634052
1741758055075351601,-0.098,78.0,,,1.124733769
1741758055083055236,-0.093,,,,1.1255041325
1741758055090758871,-0.11,,,,1.126274496
1741758055098462506,-0.103,,,,1.1270448595
1741758055106166141,-0.105,,,,1.127815223
1741758055113869776,-0.13,,,,1.1285855865
1741758055121573411,-0.203,,,,1.12935595
1741758055129277046,-0.294,,,,1.1301263135
1741758055136980681,-0.132,,,,1.130896677
1741758055144684316,0.446,,,,1.1316670405
1741758055152387951,1.182,,,,1.132437404
1741758055160091586,1.457,,,,1.1332077675
1741758055167795221,0.785,,,,1.133978131
1741758055175498856,-0.107,,,,1.1347484945
1741758055183202491,-0.228,,,,1.135518858
1741758055190906126,-0.039,,,,1.1362892215
1741758055198609761,-0.144,,,,1.137059585
1741758055206313396,-0.233,,,,1.1378299485
1741758055214017031,-0.174,,,,1.138600312
1741758055221720666,-0.159,,,,1.1393706755
1741758055229424301,-0.166,,,,1.140141039
1741758055237127936,-0.13,,,,1.1409114025
1741758055244831571,-0.112,,,,1.141681766
1741758055252535206,-0.12,,,,1.1424521295
1741758055260238841,-0.095,,,,1.143222493
1741758055267942476,-0.068,,,,1.1439928565
1741758055275646111,-0.063,,,,1.14476322
1741758055283349746,-0.051,,,,1.1455335835
1741758055291053381,-0.024,,,,1.146303947
1741758055298757016,0.007,,,,1.1470743105
1741758055306460651,0.029,,,,1.147844674
1741758055314164286,0.041,,,,1.1486150375
1741758055321867921,0.08,,,,1.149385401
1741758055329571556,0.144,,,,1.1501557645
1741758055337275191,0.208,,,,1.150926128
1741758055344978826,0.274,,,,1.1516964915
1741758055352682461,0.318,,,,1.152466855
1741758055360386096,0.341,,,,1.1532372185
1741758055368089731,0.368,,,,1.154007582
1741758055375793366,0.375,,,,1.1547779455
1741758055383497001,0.36,,,,1.155548309
1741758055391200636,0.318,,839.0,,1.1563186725
1741758055398904271,0.22,,,,1.157089036
1741758055406607906,0.076,,,,1.1578593995
1741758055414311541,-0.053,,,,1.158629763
1741758055422015176,-0.139,,,,1.1594001265
1741758055429718811,-0.218,,,,1.16017049
1741758055437422446,-0.282,,,,1.1609408535
1741758055445126081,-0.299,,,,1.161711217
1741758055452829716,-0.309,,,,1.1624815805
1741758055460533351,-0.316,,,,1.163251944
1741758055468236986,-0.306,,,,1.1640223075
1741758055475940621,-0.306,,,,1.164792671
1741758055483644256,-0.299,,,,1.1655630345
1741758055491347891,-0.277,,,,1.166333398
1741758055499051526,-0.279,,,,1.1671037615
1741758055506755161,-0.291,,,,1.167874125
1741758055514458796,-0.264,,,,1.1686444885
1741758055522162431,-0.218,,,,1.169414852
1741758055529866066,-0.213,,,,1.1701852155
1741758055537569701,-0.235,,,,1.170955579
1741758055545273336,-0.24,,,,1.1717259425
1741758055552976971,-0.213,,,,1.172496306
1741758055560680606,-0.196,,,,1.1732666695
1741758055568384241,-0.211,,,,1.174037033
1741758055576087876,-0.218,,,,1.1748073965
1741758055583791511,-0.218,,,,1.17557776
1741758055591495146,-0.223,,,,1.1763481235
1741758055599198781,-0.215,,,,1.177118487
1741758055606902416,-0.201,,,,1.1778888505
1741758055614606051,-0.186,,,,1.178659214
1741758055622309686,-0.176,,,,1.1794295775
1741758055630013321,-0.169,,,,1.180199941
1741758055637716963,-0.191,,,,1.1809703052
1741758055645420598,-0.215,,,,1.1817406687
1741758055653124233,-0.181,,,,1.1825110322
1741758055660827868,-0.171,,,,1.1832813957
1741758055668531503,-0.179,,,,1.1840517592
1741758055676235138,-0.159,,,,1.1848221227
1741758055683938773,-0.157,,,,1.1855924862
1741758055691642408,-0.161,,,,1.1863628497
1741758055699346043,-0.154,,,,1.1871332132
1741758055707049678,-0.152,,,,1.1879035767
1741758055714753313,-0.134,,,,1.1886739402
1741758055722456948,-0.142,,,,1.1894443037
1741758055730160583,-0.179,,,,1.1902146672
1741758055737864218,-0.179,,,,1.1909850307
1741758055745567853,-0.161,,,,1.1917553942
1741758055753271488,-0.159,,,,1.1925257577
1741758055760975123,-0.161,,,,1.1932961212
1741758055768678758,-0.154,,,,1.1940664847
1741758055776382393,-0.144,,,,1.1948368482
1741758055784086028,-0.144,,,,1.1956072117
1741758055791789663,-0.137,,,,1.1963775752
1741758055799493298,-0.139,,,,1.1971479387
1741758055807196933,-0.161,,,,1.1979183022
1741758055814900568,-0.149,,,,1.1986886657
1741758055822604203,-0.115,,,,1.1994590292
1741758055830307838,-0.088,,,,1.2002293927
1741758055838011473,-0.095,,,,1.2009997562
1741758055845715108,-0.132,,,,1.2017701197
1741758055853418743,-0.142,,,,1.2025404832
1741758055861122378,-0.134,,,,1.2033108467
1741758055868826013,-0.134,,,,1.2040812102
1741758055876529648,-0.139,,,,1.2048515737
1741758055884233283,-0.149,,,,1.2056219372
1741758055891936918,-0.13,,,,1.2063923007
1741758055899640553,-0.103,,,,1.2071626642
1741758055907344188,-0.139,,,,1.2079330277
1741758055915047823,-0.252,,,,1.2087033912
1741758055922751458,-0.25,,,,1.2094737547
1741758055930455093,0.144,,,,1.2102441182
1741758055938158728,0.863,,,,1.2110144817
1741758055945862363,1.403,,,,1.2117848452
1741758055953565998,1.143,,,,1.2125552087
1741758055961269633,0.23,,,,1.2133255722
1741758055968973268,-0.238,,,,1.2140959357
1741758055976676903,-0.076,,,,1.2148662992
1741758055984380538,-0.046,,,,1.2156366627
1741758055992084173,-0.166,,,,1.2164070262
1741758055999787808,-0.159,,,,1.2171773897
1741758056007491443,-0.144,,,,1.2179477532
1741758056015195078,-0.159,,,,1.2187181167
1741758056022898713,-0.134,,,,1.2194884802
1741758056030602348,-0.117,,,,1.2202588437
1741758056038305983,-0.112,,,,1.2210292072
1741758056046009618,-0.078,,,,1.2217995707
1741758056053713253,-0.051,,,,1.2225699342
1741758056061416888,-0.046,,,,1.2233402977
1741758056069120523,-0.034,,,,1.2241106612
1741758056076824158,-0.014,,,,1.2248810247
1741758056084527793,0.007,,,,1.2256513882
1741758056092231428,0.031,,,,1.2264217517
1741758056099935063,0.068,,,,1.2271921152
1741758056107638698,0.117,,,,1.2279624787
1741758056115342333,0.161,,,,1.2287328422
1741758056123045968,0.198,,,,1.2295032057
1741758056130749603,0.245,,,,1.2302735692
1741758056138453238,0.301,,,,1.2310439327
1741758056146156873,0.358,,,,1.2318142962
1741758056153860508,0.385,,,,1.2325846597
1741758056161564143,0.38,,,,1.2333550232
1741758056169267778,0.375,,,,1.2341253867
1741758056176971413,0.363,,,,1.2348957502
1741758056184675048,0.296,,,,1.2356661137
1741758056192378683,0.188,,,,1.2364364772
1741758056200082321,0.071,78.0,,,1.237206841
1741758056207785956,-0.083,,,,1.2379772045
1741758056215489591,-0.213,,,,1.238747568
1741758056223193226,-0.267,,829.0,,1.2395179315
1741758056230896861,-0.314,,,,1.240288295
1741758056238600496,-0.348,,,,1.2410586585
1741758056246304131,-0.355,,,,1.241829022
1741758056254007766,-0.363,,,,1.2425993855
1741758056261711401,-0.343,,,,1.243369749
1741758056269415036,-0.284,,,,1.2441401125
1741758056277118671,-0.272,,,,1.244910476
1741758056284822306,-0.287,,,,1.2456808395
1741758056292525941,-0.272,,,,1.246451203
1741758056300229576,-0.26,,,,1.2472215665
1741758056307933211,-0.247,,,,1.24799193
1741758056315636846,-0.233,,,,1.2487622935
1741758056323340481,-0.24,,,,1.249532657
1741758056331044116,-0.255,,,,1.2503030205
1741758056338747751,-0.252,,,,1.251073384
1741758056346451386,-0.223,,,,1.2518437475
1741758056354155021,-0.179,,,,1.252614111
1741758056361858656,-0.191,,,,1.2533844745
1741758056369562291,-0.213,,,,1.254154838
1741758056377265926,-0.181,,,,1.2549252015
1741758056384969561,-0.179,,,,1.255695565
1741758056392673196,-0.196,,,,1.2564659285
1741758056400376831,-0.188,,,,1.257236292
1741758056408080466,-0.179,,,,1.2580066555
1741758056415784101,-0.179,,,,1.258777019
1741758056423487736,-0.196,,,,1.2595473825
1741758056431191371,-0.223,,,,1.260317746
1741758056438895006,-0.208,,,,1.2610881095
1741758056446598641,-0.157,,,,1.261858473
1741758056454302276,-0.149,,,,1.2626288365
1741758056462005911,-0.171,,,,1.2633992
1741758056469709546,-0.169,,,,1.2641695635
1741758056477413181,-0.159,,,,1.264939927
1741758056485116816,-0.161,,,,1.2657102905
1741758056492820451,-0.161,,,,1.266480654
1741758056500524086,-0.164,,,,1.2672510175
1741758056508227721,-0.171,,,,1.268021381
1741758056515931356,-0.157,,,,1.2687917445
1741758056523634991,-0.144,,,,1.269562108
1741758056531338626,-0.139,,,,1.2703324715
1741758056539042261,-0.139,,,,1.271102835
1741758056546745896,-0.139,,,,1.2718731985
1741758056554449531,-0.134,,,,1.272643562
1741758056562153166,-0.142,,,,1.2734139255
1741758056569856801,-0.139,,,,1.274184289
1741758056577560436,-0.134,,,,1.2749546525
1741758056585264071,-0.144,,,,1.275725016
1741758056592967706,-0.147,,,,1.2764953795
1741758056600671341,-0.144,,,,1.277265743
1741758056608374976,-0.122,,,,1.2780361065
1741758056616078611,-0.08,,,,1.27880647
1741758056623782246,-0.09,,,,1.2795768335
1741758056631485881,-0.125,,,,1.280347197
1741758056639189516,-0.147,,,,1.2811175605
1741758056646893151,-0.152,,,,1.281887924
1741758056654596786,-0.117,,,,1.2826582875
1741758056662300421,-0.117,,,,1.283428651
1741758056670004056,-0.137,,,,1.2841990145
1741758056677707691,-0.134,,,,1.284969378
1741758056685411326,-0.134,,,,1.2857397415
1741758056693114961,-0.132,,,,1.286510105
1741758056700818596,-0.208,,,,1.2872804685
1741758056708522231,-0.287,,,,1.288050832
1741758056716225866,-0.051,,,,1.2888211955
1741758056723929501,0.549,,,,1.289591559
1741758056731633136,1.216,,,,1.2903619225
1741758056739336771,1.329,,,,1.291132286
1741758056747040406,0.561,,,,1.2919026495
1741758056754744041,-0.179,,,,1.292673013
1741758056762447679,-0.171,,,,1.2934433768
1741758056770151105,-0.034,,,,1.2942137194
1741758056777854531,-0.164,,,,1.294984062
1741758056785557957,-0.233,,,,1.2957544046
1741758056793261383,-0.159,,,,1.2965247472
1741758056800964809,-0.122,,,,1.2972950898
1741758056808668235,-0.112,,,,1.2980654324
1741758056816371661,-0.112,,,,1.298835775
1741758056824075087,-0.176,,,,1.2996061176
1741758056831778513,-0.164,,,,1.3003764602
1741758056839481939,-0.09,,,,1.3011468028
1741758056847185365,-0.083,,,,1.3019171454
1741758056854888791,-0.071,,,,1.302687488
1741758056862592217,-0.039,,,,1.3034578306
1741758056870295643,0.004,,,,1.3042281732
1741758056877999069,0.046,,,,1.3049985158
1741758056885702495,0.044,,,,1.3057688584
1741758056893405921,0.098,,,,1.306539201
1741758056901109347,0.184,,,,1.3073095436
1741758056908812773,0.196,,,,1.3080798862
1741758056916516199,0.201,,,,1.3088502288
1741758056924219625,0.269,,,,1.3096205714
1741758056931923051,0.363,,,,1.310390914
1741758056939626477,0.385,,,,1.3111612566
1741758056947329903,0.385,,,,1.3119315992
1741758056955033329,0.422,,,,1.3127019418
1741758056962736755,0.402,,742.0,,1.3134722844
1741758056970440181,0.358,,,,1.314242627
1741758056978143607,0.25,,,,1.3150129696
1741758056985847033,0.061,,,,1.3157833122
1741758056993550459,-0.044,,,,1.3165536548
1741758057001253885,-0.132,,,,1.3173239974
1741758057008957311,-0.262,,,,1.31809434
1741758057016660737,-0.336,,,,1.3188646826
1741758057024364163,-0.365,,,,1.3196350252
1741758057032067589,-0.345,,,,1.3204053678
1741758057039771015,-0.338,,,,1.3211757104
1741758057047474441,-0.35,,,,1.321946053
1741758057055177867,-0.304,,,,1.3227163956
1741758057062881293,-0.321,,,,1.3234867382
1741758057070584719,-0.341,,,,1.3242570808
1741758057078288145,-0.269,,,,1.3250274234
1741758057085991571,-0.296,,,,1.325797766
1741758057093694997,-0.348,,,,1.3265681086
1741758057101398423,-0.269,,,,1.3273384512
1741758057109101849,-0.211,,,,1.3281087938
1741758057116805275,-0.272,,,,1.3288791364
1741758057124508701,-0.289,,,,1.329649479
1741758057132212127,-0.198,,,,1.3304198216
1741758057139915553,-0.223,,,,1.3311901642
1741758057147618979,-0.289,,,,1.3319605068
1741758057155322405,-0.215,,,,1.3327308494
1741758057163025831,-0.188,,,,1.333501192
1741758057170729257,-0.233,,,,1.3342715346
1741758057178432683,-0.215,,,,1.3350418772
1741758057186136109,-0.174,,,,1.3358122198
1741758057193839535,-0.181,,,,1.3365825624
1741758057201542961,-0.238,,,,1.337352905
1741758057209246387,-0.233,,,,1.3381232476
1741758057216949813,-0.159,,,,1.3388935902
1741758057224653239,-0.169,,,,1.3396639328
1741758057232356665,-0.235,,,,1.3404342754
1741758057240060091,-0.23,,,,1.341204618
1741758057247763517,-0.201,,,,1.3419749606
1741758057255466943,-0.213,,,,1.3427453032
1741758057263170369,-0.215,,,,1.3435156458
1741758057270873795,-0.171,,,,1.3442859884
1741758057278577221,-0.157,,,,1.345056331
1741758057286280647,-0.179,,,,1.3458266736
1741758057293984073,-0.169,,,,1.3465970162
1741758057301687499,-0.196,,,,1.3473673588
1741758057309390925,-0.211,,,,1.3481377014
1741758057317094351,-0.181,,,,1.348908044
1741758057324797780,-0.188,78.0,,,1.3496783869
1741758057332501484,-0.196,,,,1.3504487573
1741758057340205188,-0.188,,,,1.3512191277
1741758057347908892,-0.196,,,,1.3519894981
1741758057355612596,-0.188,,,,1.3527598685
1741758057363316300,-0.193,,,,1.3535302389
1741758057371020004,-0.184,,,,1.3543006093
1741758057378723708,-0.166,,,,1.3550709797
1741758057386427412,-0.157,,,,1.3558413501
1741758057394131116,-0.159,,,,1.3566117205
1741758057401834820,-0.188,,,,1.3573820909
1741758057409538524,-0.191,,,,1.3581524613
1741758057417242228,-0.159,,,,1.3589228317
1741758057424945932,-0.161,,,,1.3596932021
1741758057432649636,-0.161,,,,1.3604635725
1741758057440353340,-0.149,,,,1.3612339429
1741758057448057044,-0.149,,,,1.3620043133
1741758057455760748,-0.125,,,,1.3627746837
1741758057463464452,-0.174,,,,1.3635450541
1741758057471168156,-0.328,,,,1.3643154245
1741758057478871860,-0.279,,,,1.3650857949
1741758057486575564,0.225,,,,1.3658561653
1741758057494279268,0.978,,,,1.3666265357
1741758057501982972,1.405,,,,1.3673969061
1741758057509686676,0.991,,,,1.3681672765
1741758057517390380,0.071,,,,1.3689376469
1741758057525094084,-0.291,,,,1.3697080173
1741758057532797788,-0.083,,,,1.3704783877
1741758057540501492,-0.11,,,,1.3712487581
1741758057548205196,-0.262,,,,1.3720191285
1741758057555908900,-0.203,,,,1.3727894989
1741758057563612604,-0.171,,,,1.3735598693
1741758057571316308,-0.201,,,,1.3743302397
1741758057579020012,-0.174,,,,1.3751006101
1741758057586723716,-0.159,,,,1.3758709805
1741758057594427420,-0.142,,,,1.3766413509
1741758057602131124,-0.122,,,,1.3774117213
1741758057609834828,-0.098,,,,1.3781820917
1741758057617538532,-0.058,,,,1.3789524621
1741758057625242236,-0.058,,,,1.3797228325
1741758057632945940,-0.046,,,,1.3804932029
1741758057640649644,-0.012,,,,1.3812635733
1741758057648353348,0.0,,,,1.3820339437
1741758057656057052,0.044,,,,1.3828043141
1741758057663760756,0.095,,,,1.3835746845
1741758057671464460,0.147,,,,1.3843450549
1741758057679168164,0.225,,,,1.3851154253
1741758057686871868,0.279,,,,1.3858857957
1741758057694575572,0.331,,,,1.3866561661
1741758057702279276,0.37,,,,1.3874265365
1741758057709982980,0.402,,,,1.3881969069
1741758057717686684,0.417,,,,1.3889672773
1741758057725390388,0.399,,762.0,,1.3897376477
1741758057733094092,0.372,,,,1.3905080181
1741758057740797796,0.262,,,,1.3912783885
1741758057748501500,0.115,,,,1.3920487589
1741758057756205204,0.007,,,,1.3928191293
1741758057763908908,-0.125,,,,1.3935894997
1741758057771612612,-0.23,,,,1.3943598701
1741758057779316316,-0.279,,,,1.3951302405
1741758057787020020,-0.314,,,,1.3959006109
1741758057794723724,-0.343,,,,1.3966709813
1741758057802427428,-0.385,,,,1.3974413517
1741758057810131132,-0.37,,,,1.3982117221
1741758057817834836,-0.328,,,,1.3989820925
1741758057825538540,-0.345,,,,1.3997524629
1741758057833242244,-0.326,,,,1.4005228333
1741758057840945948,-0.296,,,,1.4012932037
1741758057848649652,-0.309,,,,1.4020635741
1741758057856353356,-0.304,,,,1.4028339445
1741758057864057060,-0.301,,,,1.4036043149
1741758057871760764,-0.284,,,,1.4043746853
1741758057879464468,-0.277,,,,1.4051450557
1741758057887168225,-0.299,78.0,,,1.4059154314
1741758057894871929,-0.262,,,,1.4066858018
1741758057902575633,-0.245,,,,1.4074561722
1741758057910279337,-0.255,,,,1.4082265426
1741758057917983041,-0.22,,,,1.408996913
1741758057925686745,-0.228,,,,1.4097672834
1741758057933390449,-0.262,,,,1.4105376538
1741758057941094153,-0.233,,,,1.4113080242
1741758057948797857,-0.213,,,,1.4120783946
1741758057956501561,-0.233,,,,1.412848765
1741758057964205265,-0.225,,,,1.4136191354
1741758057971908969,-0.201,,,,1.4143895058
1741758057979612673,-0.213,,,,1.4151598762
1741758057987316377,-0.215,,,,1.4159302466
1741758057995020081,-0.206,,,,1.416700617
1741758058002723785,-0.22,,,,1.4174709874
1741758058010427489,-0.213,,,,1.4182413578
1741758058018131193,-0.198,,,,1.4190117282
1741758058025834897,-0.215,,,,1.4197820986
1741758058033538601,-0.191,,,,1.420552469
1741758058041242305,-0.181,,,,1.4213228394
1741758058048946009,-0.22,,,,1.4220932098
1741758058056649713,-0.198,,,,1.4228635802
1741758058064353417,-0.171,,,,1.4236339506
1741758058072057121,-0.184,,,,1.424404321
1741758058079760825,-0.191,,,,1.4251746914
1741758058087464529,-0.196,,,,1.4259450618
1741758058095168233,-0.179,,,,1.4267154322
1741758058102871937,-0.161,,,,1.4274858026
1741758058110575641,-0.181,,,,1.428256173
1741758058118279345,-0.193,,,,1.4290265434
1741758058125983049,-0.179,,,,1.4297969138
1741758058133686753,-0.169,,,,1.4305672842
1741758058141390457,-0.188,,,,1.4313376546
1741758058149094161,-0.174,,,,1.432108025
1741758058156797865,-0.154,,,,1.4328783954
1741758058164501569,-0.196,,,,1.4336487658
1741758058172205273,-0.186,,,,1.4344191362
1741758058179908977,-0.149,,,,1.4351895066
1741758058187612681,-0.157,,,,1.435959877
1741758058195316385,-0.122,,,,1.4367302474
1741758058203020089,-0.122,,,,1.4375006178
1741758058210723793,-0.176,,,,1.4382709882
1741758058218427497,-0.176,,,,1.4390413586
1741758058226131201,-0.157,,,,1.439811729
1741758058233834905,-0.147,,,,1.4405820994
1741758058241538609,-0.159,,,,1.4413524698
1741758058249242313,-0.179,,,,1.4421228402
1741758058256946017,-0.159,,,,1.4428932106
1741758058264649721,-0.159,,,,1.443663581
1741758058272353425,-0.213,,,,1.4444339514
1741758058280057129,-0.328,,,,1.4452043218
1741758058287760833,-0.289,,,,1.4459746922
1741758058295464537,0.206,,,,1.4467450626
1741758058303168241,0.996,,,,1.447515433
1741758058310871945,1.523,,,,1.4482858034
1741758058318575649,1.128,,,,1.4490561738
1741758058326279353,0.085,,,,1.4498265442
1741758058333983057,-0.323,,,,1.4505969146
1741758058341686761,-0.117,,,,1.451367285
1741758058349390465,-0.157,,,,1.4521376554
1741758058357094169,-0.264,,,,1.4529080258
1741758058364797873,-0.191,,,,1.4536783962
1741758058372501577,-0.191,,,,1.4544487666
1741758058380205281,-0.25,,,,1.455219137
1741758058387908985,-0.203,,,,1.4559895074
1741758058395612689,-0.152,,,,1.4567598778
1741758058403316393,-0.174,,,,1.4575302482
1741758058411020097,-0.149,,,,1.4583006186
1741758058418723801,-0.117,,,,1.459070989
1741758058426427505,-0.107,,,,1.4598413594
1741758058434131209,-0.071,,,,1.4606117298
1741758058441834913,-0.068,,,,1.4613821002
1741758058449538670,-0.056,,,,1.4621524759
1741758058457242374,0.0,,,,1.4629228463
1741758058464946078,0.022,,,,1.4636932167
1741758058472649782,0.068,,,,1.4644635871
1741758058480353486,0.132,,,,1.4652339575
1741758058488057190,0.184,,,,1.4660043279
1741758058495760894,0.247,,769.0,,1.4667746983
1741758058503464598,0.282,,,,1.4675450687
1741758058511168302,0.321,,,,1.4683154391
1741758058518872006,0.377,,,,1.4690858095
1741758058526575710,0.397,,,,1.4698561799
1741758058534279414,0.387,,,,1.4706265503
1741758058541983118,0.341,,,,1.4713969207
1741758058549686822,0.264,,,,1.4721672911
1741758058557390526,0.157,,,,1.4729376615
1741758058565094230,0.002,,,,1.4737080319
1741758058572797934,-0.125,,,,1.4744784023
1741758058580501638,-0.211,,,,1.4752487727
1741758058588205342,-0.284,,,,1.4760191431
1741758058595909046,-0.345,,,,1.4767895135
1741758058603612750,-0.375,,,,1.4775598839
1741758058611316454,-0.353,,,,1.4783302543
1741758058619020158,-0.348,,,,1.4791006247
1741758058626723862,-0.385,,,,1.4798709951
1741758058634427566,-0.368,,,,1.4806413655
1741758058642131270,-0.326,,,,1.4814117359
1741758058649834974,-0.311,,,,1.4821821063
1741758058657538678,-0.316,,,,1.4829524767
1741758058665242382,-0.333,,,,1.4837228471
1741758058672946086,-0.287,,,,1.4844932175
1741758058680649790,-0.262,,,,1.4852635879
1741758058688353494,-0.301,,,,1.4860339583
1741758058696057198,-0.279,,,,1.4868043287
1741758058703760902,-0.255,,,,1.4875746991
1741758058711464606,-0.257,,,,1.4883450695
1741758058719168310,-0.255,,,,1.4891154399
1741758058726872014,-0.255,,,,1.4898858103
1741758058734575718,-0.24,,,,1.4906561807
1741758058742279422,-0.238,,,,1.4914265511
1741758058749983126,-0.235,,,,1.4921969215
1741758058757686830,-0.228,,,,1.4929672919
1741758058765390534,-0.24,,,,1.4937376623
1741758058773094238,-0.206,,,,1.4945080327
1741758058780797942,-0.184,,,,1.4952784031
1741758058788501646,-0.22,,,,1.4960487735
1741758058796205350,-0.22,,,,1.4968191439
1741758058803909054,-0.22,,,,1.4975895143
1741758058811612758,-0.238,,,,1.4983598847
1741758058819316462,-0.215,,,,1.4991302551
1741758058827020166,-0.198,,,,1.4999006255
1741758058834723870,-0.203,,,,1.5006709959
1741758058842427574,-0.211,,,,1.5014413663
1741758058850131278,-0.191,,,,1.5022117367
1741758058857834982,-0.161,,,,1.5029821071
1741758058865538686,-0.181,,,,1.5037524775
1741758058873242390,-0.196,,,,1.5045228479
1741758058880946094,-0.179,,,,1.5052932183
1741758058888649798,-0.179,,,,1.5060635887
1741758058896353502,-0.176,,,,1.5068339591
1741758058904057206,-0.179,,,,1.5076043295
1741758058911760910,-0.171,,,,1.5083746999
1741758058919464614,-0.152,,,,1.5091450703
1741758058927168318,-0.154,,,,1.5099154407
1741758058934872022,-0.166,,,,1.5106858111
1741758058942575726,-0.159,,,,1.5114561815
1741758058950279430,-0.139,,,,1.5122265519
1741758058957983134,-0.144,,,,1.5129969223
1741758058965686838,-0.161,,,,1.5137672927
1741758058973390542,-0.137,,,,1.5145376631
1741758058981094246,-0.137,,,,1.5153080335
1741758058988797950,-0.154,,,,1.5160784039
1741758058996501654,-0.147,,,,1.5168487743
1741758059004205358,-0.139,,,,1.5176191447
1741758059011909115,-0.098,78.0,,,1.5183895204
1741758059019612750,-0.085,,,,1.5191598839
1741758059027316385,-0.132,,,,1.5199302474
1741758059035020020,-0.139,,,,1.5207006109
1741758059042723655,-0.13,,,,1.5214709744
1741758059050427290,-0.13,,,,1.5222413379
1741758059058130925,-0.125,,,,1.5230117014
1741758059065834560,-0.125,,,,1.5237820649
1741758059073538195,-0.098,,,,1.5245524284
1741758059081241830,-0.095,,,,1.5253227919
1741758059088945465,-0.149,,,,1.5260931554
1741758059096649100,-0.206,,,,1.5268635189
1741758059104352735,-0.284,,,,1.5276338824
1741758059112056370,-0.191,,,,1.5284042459
1741758059119760005,0.343,,,,1.5291746094
1741758059127463640,1.148,,,,1.5299449729
1741758059135167275,1.597,,,,1.5307153364
1741758059142870910,1.055,,,,1.5314856999
1741758059150574545,0.049,,,,1.5322560634
1741758059158278180,-0.25,,,,1.5330264269
1741758059165981815,-0.063,,,,1.5337967904
1741758059173685450,-0.098,,,,1.5345671539
1741758059181389085,-0.191,,,,1.5353375174
1741758059189092720,-0.166,,,,1.5361078809
1741758059196796355,-0.164,,,,1.5368782444
1741758059204499990,-0.159,,,,1.5376486079
1741758059212203625,-0.098,,,,1.5384189714
1741758059219907260,-0.073,,,,1.5391893349
1741758059227610895,-0.08,,,,1.5399596984
1741758059235314530,-0.046,,,,1.5407300619
1741758059243018165,-0.022,,,,1.5415004254
1741758059250721800,-0.004,,,,1.5422707889
1741758059258425435,0.026,,,,1.5430411524
1741758059266129070,0.041,,,,1.5438115159
1741758059273832705,0.08,,,,1.5445818794
1741758059281536340,0.103,,789.0,,1.5453522429
1741758059289239975,0.107,,,,1.5461226064
1741758059296943610,0.166,,,,1.5468929699
1741758059304647245,0.213,,,,1.5476633334
1741758059312350880,0.26,,,,1.5484336969
1741758059320054515,0.328,,,,1.5492040604
1741758059327758150,0.382,,,,1.5499744239
1741758059335461785,0.436,,,,1.5507447874
1741758059343165420,0.456,,,,1.5515151509
1741758059350869055,0.461,,,,1.5522855144
1741758059358572690,0.461,,,,1.5530558779
1741758059366276325,0.409,,,,1.5538262414
1741758059373979960,0.328,,,,1.5545966049
1741758059381683595,0.203,,,,1.5553669684
1741758059389387230,0.046,,,,1.5561373319
1741758059397090865,-0.076,,,,1.5569076954
1741758059404794500,-0.186,,,,1.5576780589
1741758059412498135,-0.26,,,,1.5584484224
1741758059420201770,-0.299,,,,1.5592187859
1741758059427905405,-0.333,,,,1.5599891494
1741758059435609040,-0.321,,,,1.5607595129
1741758059443312675,-0.311,,,,1.5615298764
1741758059451016310,-0.321,,,,1.5623002399
1741758059458719945,-0.321,,,,1.5630706034
1741758059466423580,-0.328,,,,1.5638409669
1741758059474127215,-0.299,,,,1.5646113304
1741758059481830850,-0.269,,,,1.5653816939
1741758059489534485,-0.274,,,,1.5661520574
1741758059497238120,-0.264,,,,1.5669224209
1741758059504941755,-0.255,,,,1.5676927844
1741758059512645390,-0.242,,,,1.5684631479
1741758059520349025,-0.235,,,,1.5692335114
1741758059528052660,-0.235,,,,1.5700038749
1741758059535756295,-0.211,,,,1.5707742384
1741758059543459930,-0.228,,,,1.5715446019
1741758059551163565,-0.238,,,,1.5723149654
1741758059558867200,-0.208,,,,1.5730853289
1741758059566570835,-0.206,,,,1.5738556924
1741758059574274473,-0.191,,,,1.5746260562
1741758059581978108,-0.184,,,,1.5753964197
1741758059589681743,-0.196,,,,1.5761667832
1741758059597385378,-0.188,,,,1.5769371467
1741758059605089013,-0.161,,,,1.5777075102
1741758059612792648,-0.132,,,,1.5784778737
1741758059620496283,-0.188,,,,1.5792482372
1741758059628199918,-0.238,,,,1.5800186007
1741758059635903553,-0.171,,,,1.5807889642
1741758059643607188,-0.166,,,,1.5815593277
1741758059651310823,-0.206,,,,1.5823296912
1741758059659014458,-0.161,,,,1.5831000547
1741758059666718093,-0.122,,,,1.5838704182
1741758059674421728,-0.115,,,,1.5846407817
1741758059682125363,-0.137,,,,1.5854111452
1741758059689828998,-0.169,,,,1.5861815087
1741758059697532633,-0.164,,,,1.5869518722
1741758059705236268,-0.159,,,,1.5877222357
1741758059712939903,-0.149,,,,1.5884925992
1741758059720643538,-0.144,,,,1.5892629627
1741758059728347173,-0.149,,,,1.5900333262
1741758059736050808,-0.13,,,,1.5908036897
1741758059743754443,-0.125,,,,1.5915740532
1741758059751458078,-0.127,,,,1.5923444167
1741758059759161713,-0.122,,,,1.5931147802
1741758059766865348,-0.13,,,,1.5938851437
1741758059774568983,-0.11,,,,1.5946555072
1741758059782272618,-0.112,,,,1.5954258707
1741758059789976253,-0.13,,,,1.5961962342
1741758059797679888,-0.115,,,,1.5969665977
1741758059805383523,-0.112,,,,1.5977369612
1741758059813087158,-0.115,,,,1.5985073247
1741758059820790793,-0.13,,,,1.5992776882
1741758059828494428,-0.137,,,,1.6000480517
1741758059836198063,-0.112,,,,1.6008184152
1741758059843901698,-0.098,,,,1.6015887787
1741758059851605333,-0.076,,,,1.6023591422
1741758059859308968,-0.056,,,,1.6031295057
1741758059867012603,-0.085,,,,1.6038998692
1741758059874716238,-0.103,,,,1.6046702327
1741758059882419873,-0.103,,,,1.6054405962
1741758059890123508,-0.107,,,,1.6062109597
1741758059897827143,-0.105,,,,1.6069813232
1741758059905530778,-0.11,,,,1.6077516867
1741758059913234413,-0.1,,,,1.6085220502
1741758059920938048,-0.1,,,,1.6092924137
1741758059928641683,-0.137,,,,1.6100627772
1741758059936345318,-0.225,,,,1.6108331407
1741758059944048953,-0.25,,,,1.6116035042
1741758059951752588,0.12,,,,1.6123738677
1741758059959456223,0.848,,,,1.6131442312
1741758059967159858,1.428,,,,1.6139145947
1741758059974863493,1.288,,,,1.6146849582
1741758059982567128,0.377,,,,1.6154553217
1741758059990270763,-0.245,,,,1.6162256852
1741758059997974398,-0.11,,,,1.6169960487
1741758060005678033,-0.046,,,,1.6177664122
1741758060013381668,-0.196,,,,1.6185367757
1741758060021085303,-0.176,,,,1.6193071392
1741758060028788938,-0.112,,,,1.6200775027
1741758060036492573,-0.117,,,,1.6208478662
1741758060044196208,-0.127,,,,1.6216182297
1741758060051899843,-0.1,,,,1.6223885932
1741758060059603478,-0.08,,,,1.6231589567
1741758060067307113,-0.083,,,,1.6239293202
1741758060075010748,-0.051,,789.0,,1.6246996837
1741758060082714383,-0.029,,,,1.6254700472
1741758060090418018,-0.012,,,,1.6262404107
1741758060098121653,0.022,,,,1.6270107742
1741758060105825288,0.029,,,,1.6277811377
1741758060113528923,0.058,,,,1.6285515012
1741758060121232558,0.098,,,,1.6293218647
1741758060128936193,0.12,,,,1.6300922282
1741758060136639831,0.184,78.0,,,1.630862592
1741758060144343257,0.25,,,,1.6316329346
1741758060152046683,0.309,,,,1.6324032772
1741758060159750109,0.365,,,,1.6331736198
1741758060167453535,0.409,,,,1.6339439624
1741758060175156961,0.468,,,,1.634714305
1741758060182860387,0.48,,,,1.6354846476
1741758060190563813,0.458,,,,1.6362549902
1741758060198267239,0.439,,,,1.6370253328
1741758060205970665,0.363,,,,1.6377956754
1741758060213674091,0.26,,,,1.638566018
1741758060221377517,0.127,,,,1.6393363606
1741758060229080943,-0.024,,,,1.6401067032
1741758060236784369,-0.137,,,,1.6408770458
1741758060244487795,-0.228,,,,1.6416473884
1741758060252191221,-0.279,,,,1.642417731
1741758060259894647,-0.304,,,,1.6431880736
1741758060267598073,-0.323,,,,1.6439584162
1741758060275301499,-0.314,,,,1.6447287588
1741758060283004925,-0.333,,,,1.6454991014
1741758060290708351,-0.338,,,,1.646269444
1741758060298411777,-0.296,,,,1.6470397866
1741758060306115203,-0.291,,,,1.6478101292
1741758060313818629,-0.299,,,,1.6485804718
1741758060321522055,-0.299,,,,1.6493508144
1741758060329225481,-0.289,,,,1.650121157
1741758060336928907,-0.26,,,,1.6508914996
1741758060344632333,-0.26,,,,1.6516618422
1741758060352335759,-0.24,,,,1.6524321848
1741758060360039185,-0.213,,,,1.6532025274
1741758060367742611,-0.223,,,,1.65397287
1741758060375446037,-0.206,,,,1.6547432126
1741758060383149463,-0.188,,,,1.6555135552
1741758060390852889,-0.176,,,,1.6562838978
1741758060398556315,-0.169,,,,1.6570542404
1741758060406259741,-0.198,,,,1.657824583
1741758060413963167,-0.191,,,,1.6585949256
1741758060421666593,-0.184,,,,1.6593652682
1741758060429370019,-0.191,,,,1.6601356108
1741758060437073445,-0.164,,,,1.6609059534
1741758060444776871,-0.166,,,,1.661676296
1741758060452480297,-0.176,,,,1.6624466386
1741758060460183723,-0.169,,,,1.6632169812
1741758060467887149,-0.174,,,,1.6639873238
1741758060475590575,-0.159,,,,1.6647576664
1741758060483294001,-0.159,,,,1.665528009
1741758060490997427,-0.159,,,,1.6662983516
1741758060498700853,-0.139,,,,1.6670686942
1741758060506404279,-0.152,,,,1.6678390368
1741758060514107705,-0.147,,,,1.6686093794
1741758060521811131,-0.142,,,,1.669379722
1741758060529514557,-0.137,,,,1.6701500646
1741758060537217983,-0.115,,,,1.6709204072
1741758060544921409,-0.144,,,,1.6716907498
1741758060552624835,-0.152,,,,1.6724610924
1741758060560328261,-0.125,,,,1.673231435
1741758060568031687,-0.13,,,,1.6740017776
1741758060575735113,-0.117,,,,1.6747721202
1741758060583438539,-0.115,,,,1.6755424628
1741758060591141965,-0.134,,,,1.6763128054
1741758060598845391,-0.137,,,,1.677083148
1741758060606548817,-0.142,,,,1.6778534906
1741758060614252243,-0.134,,,,1.6786238332
1741758060621955669,-0.112,,,,1.6793941758
1741758060629659095,-0.09,,,,1.6801645184
1741758060637362521,-0.078,,,,1.680934861
1741758060645065947,-0.1,,,,1.6817052036
1741758060652769373,-0.125,,,,1.6824755462
1741758060660472799,-0.137,,,,1.6832458888
1741758060668176225,-0.139,,,,1.6840162314
1741758060675879651,-0.122,,,,1.684786574
1741758060683583077,-0.11,,,,1.6855569166
1741758060691286503,-0.105,,,,1.6863272592
1741758060698989932,-0.103,,,,1.6870976021
1741758060706693636,-0.117,,,,1.6878679725
1741758060714397340,-0.169,,,,1.6886383429
1741758060722101044,-0.272,,,,1.6894087133
1741758060729804748,-0.198,,,,1.6901790837
1741758060737508452,0.304,,,,1.6909494541
1741758060745212156,1.008,,,,1.6917198245
1741758060752915860,1.396,,,,1.6924901949
1741758060760619564,0.996,,,,1.6932605653
1741758060768323268,0.1,,,,1.6940309357
1741758060776026972,-0.252,,,,1.6948013061
1741758060783730676,-0.058,,,,1.6955716765
1741758060791434380,-0.08,,,,1.6963420469
1741758060799138084,-0.211,,,,1.6971124173
1741758060806841788,-0.161,,,,1.6978827877
1741758060814545492,-0.122,,,,1.6986531581
1741758060822249196,-0.161,,,,1.6994235285
1741758060829952900,-0.154,,,,1.7001938989
1741758060837656604,-0.12,,766.0,,1.7009642693
1741758060845360308,-0.11,,,,1.7017346397
1741758060853064012,-0.103,,,,1.7025050101
1741758060860767716,-0.078,,,,1.7032753805
1741758060868471420,-0.056,,,,1.7040457509
1741758060876175124,-0.044,,,,1.7048161213
1741758060883878828,-0.014,,,,1.7055864917
1741758060891582532,0.026,,,,1.7063568621
1741758060899286236,0.049,,,,1.7071272325
1741758060906989940,0.068,,,,1.7078976029
1741758060914693644,0.12,,,,1.7086679733
1741758060922397348,0.176,,,,1.7094383437
1741758060930101052,0.223,,,,1.7102087141
1741758060937804756,0.282,,,,1.7109790845
1741758060945508460,0.333,,,,1.7117494549
1741758060953212164,0.37,,,,1.7125198253
1741758060960915868,0.399,,,,1.7132901957
1741758060968619572,0.431,,,,1.7140605661
1741758060976323276,0.434,,,,1.7148309365
1741758060984026980,0.372,,,,1.7156013069
1741758060991730684,0.279,,,,1.7163716773
1741758060999434388,0.159,,,,1.7171420477
1741758061007138092,0.009,,,,1.7179124181
1741758061014841796,-0.122,,,,1.7186827885
1741758061022545500,-0.206,,,,1.7194531589
1741758061030249204,-0.252,,,,1.7202235293
1741758061037952908,-0.289,,,,1.7209938997
1741758061045656612,-0.328,,,,1.7217642701
1741758061053360316,-0.336,,,,1.7225346405
1741758061061064020,-0.321,,,,1.7233050109
1741758061068767724,-0.318,,,,1.7240753813
1741758061076471428,-0.323,,,,1.7248457517
1741758061084175132,-0.321,,,,1.7256161221
1741758061091878836,-0.299,,,,1.7263864925
1741758061099582540,-0.274,,,,1.7271568629
1741758061107286244,-0.269,,,,1.7279272333
1741758061114989948,-0.272,,,,1.7286976037
1741758061122693652,-0.26,,,,1.7294679741
1741758061130397356,-0.25,,,,1.7302383445
1741758061138101060,-0.245,,,,1.7310087149
1741758061145804764,-0.24,,,,1.7317790853
1741758061153508468,-0.23,,,,1.7325494557
1741758061161212172,-0.211,,,,1.7333198261
1741758061168915876,-0.198,,,,1.7340901965
1741758061176619580,-0.208,,,,1.7348605669
1741758061184323284,-0.201,,,,1.7356309373
1741758061192026988,-0.179,,,,1.7364013077
1741758061199730692,-0.181,,,,1.7371716781
1741758061207434396,-0.188,,,,1.7379420485
1741758061215138100,-0.184,,,,1.7387124189
1741758061222841804,-0.179,,,,1.7394827893
1741758061230545508,-0.181,,,,1.7402531597
1741758061238249212,-0.174,,,,1.7410235301
1741758061245952916,-0.164,,,,1.7417939005
1741758061253656620,-0.169,,,,1.7425642709
1741758061261360377,-0.171,78.0,,,1.7433346466
1741758061269064081,-0.171,,,,1.744105017
1741758061276767785,-0.174,,,,1.7448753874
1741758061284471489,-0.174,,,,1.7456457578
1741758061292175193,-0.161,,,,1.7464161282
1741758061299878897,-0.152,,,,1.7471864986
1741758061307582601,-0.159,,,,1.747956869
1741758061315286305,-0.157,,,,1.7487272394
1741758061322990009,-0.154,,,,1.7494976098
1741758061330693713,-0.161,,,,1.7502679802
1741758061338397417,-0.147,,,,1.7510383506
1741758061346101121,-0.13,,,,1.751808721
1741758061353804825,-0.144,,,,1.7525790914
1741758061361508529,-0.144,,,,1.7533494618
1741758061369212233,-0.134,,,,1.7541198322
1741758061376915937,-0.134,,,,1.7548902026
1741758061384619641,-0.125,,,,1.755660573
1741758061392323345,-0.125,,,,1.7564309434
1741758061400027049,-0.144,,,,1.7572013138
1741758061407730753,-0.149,,,,1.7579716842
1741758061415434457,-0.139,,,,1.7587420546
1741758061423138161,-0.122,,,,1.759512425
1741758061430841865,-0.1,,,,1.7602827954
1741758061438545569,-0.093,,,,1.7610531658
1741758061446249273,-0.09,,,,1.7618235362
1741758061453952977,-0.105,,,,1.7625939066
1741758061461656681,-0.117,,,,1.763364277
1741758061469360385,-0.115,,,,1.7641346474
1741758061477064089,-0.115,,,,1.7649050178
1741758061484767793,-0.122,,,,1.7656753882
1741758061492471497,-0.12,,,,1.7664457586
1741758061500175201,-0.12,,,,1.767216129
1741758061507878905,-0.11,,,,1.7679864994
1741758061515582609,-0.125,,,,1.7687568698
1741758061523286313,-0.23,,,,1.7695272402
1741758061530990017,-0.306,,,,1.7702976106
1741758061538693721,-0.034,,,,1.771067981
1741758061546397425,0.637,,,,1.7718383514
1741758061554101129,1.342,,,,1.7726087218
1741758061561804833,1.459,,,,1.7733790922
1741758061569508537,0.657,,,,1.7741494626
1741758061577212241,-0.174,,,,1.774919833
1741758061584915945,-0.201,,,,1.7756902034
1741758061592619649,-0.051,,,,1.7764605738
1741758061600323353,-0.174,,,,1.7772309442
1741758061608027057,-0.223,,,,1.7780013146
1741758061615730761,-0.161,,,,1.778771685
1741758061623434465,-0.171,,,,1.7795420554
1741758061631138169,-0.186,,,,1.7803124258
1741758061638841873,-0.157,,,,1.7810827962
1741758061646545577,-0.134,,810.0,,1.7818531666
1741758061654249281,-0.125,,,,1.782623537
1741758061661952985,-0.103,,,,1.7833939074
1741758061669656689,-0.088,,,,1.7841642778
1741758061677360393,-0.083,,,,1.7849346482
1741758061685064097,-0.056,,,,1.7857050186
1741758061692767801,-0.017,,,,1.786475389
1741758061700471505,0.007,,,,1.7872457594
1741758061708175209,0.031,,,,1.7880161298
1741758061715878913,0.066,,,,1.7887865002
1741758061723582617,0.115,,,,1.7895568706
1741758061731286321,0.166,,,,1.790327241
1741758061738990025,0.215,,,,1.7910976114
1741758061746693729,0.272,,,,1.7918679818
1741758061754397433,0.336,,,,1.7926383522
1741758061762101137,0.38,,,,1.7934087226
1741758061769804841,0.392,,,,1.794179093
1741758061777508545,0.39,,,,1.7949494634
1741758061785212249,0.38,,,,1.7957198338
1741758061792915953,0.336,,,,1.7964902042
1741758061800619657,0.233,,,,1.7972605746
1741758061808323361,0.1,,,,1.798030945
1741758061816027065,-0.029,,,,1.7988013154
1741758061823730822,-0.147,,,,1.7995716911
1741758061831434108,-0.228,,,,1.8003420197
1741758061839137394,-0.284,,,,1.8011123483
1741758061846840680,-0.331,,,,1.8018826769
1741758061854543966,-0.35,,,,1.8026530055
1741758061862247252,-0.338,,,,1.8034233341
1741758061869950538,-0.323,,,,1.8041936627
1741758061877653824,-0.316,,,,1.8049639913
1741758061885357110,-0.316,,,,1.8057343199
1741758061893060396,-0.306,,,,1.8065046485
1741758061900763682,-0.294,,,,1.8072749771
1741758061908466968,-0.289,,,,1.8080453057
1741758061916170254,-0.277,,,,1.8088156343
1741758061923873540,-0.264,,,,1.8095859629
1741758061931576826,-0.242,,,,1.8103562915
1741758061939280112,-0.223,,,,1.8111266201
1741758061946983398,-0.233,,,,1.8118969487
1741758061954686684,-0.225,,,,1.8126672773
1741758061962389970,-0.215,,,,1.8134376059
1741758061970093256,-0.22,,,,1.8142079345
1741758061977796542,-0.215,,,,1.8149782631
1741758061985499828,-0.208,,,,1.8157485917
1741758061993203114,-0.198,,,,1.8165189203
1741758062000906400,-0.193,,,,1.8172892489
1741758062008609686,-0.196,,,,1.8180595775
1741758062016312972,-0.186,,,,1.8188299061
1741758062024016258,-0.186,,,,1.8196002347
1741758062031719544,-0.188,,,,1.8203705633
1741758062039422830,-0.188,,,,1.8211408919
1741758062047126116,-0.196,,,,1.8219112205
1741758062054829402,-0.181,,,,1.8226815491
1741758062062532688,-0.159,,,,1.8234518777
1741758062070235974,-0.157,,,,1.8242222063
1741758062077939260,-0.164,,,,1.8249925349
1741758062085642546,-0.174,,,,1.8257628635
1741758062093345832,-0.157,,,,1.8265331921
1741758062101049118,-0.149,,,,1.8273035207
1741758062108752404,-0.166,,,,1.8280738493
1741758062116455690,-0.169,,,,1.8288441779
1741758062124158976,-0.169,,,,1.8296145065
1741758062131862262,-0.159,,,,1.8303848351
1741758062139565548,-0.142,,,,1.8311551637
1741758062147268834,-0.149,,,,1.8319254923
1741758062154972120,-0.144,,,,1.8326958209
1741758062162675406,-0.13,,,,1.8334661495
1741758062170378692,-0.132,,,,1.8342364781
1741758062178081978,-0.127,,,,1.8350068067
1741758062185785264,-0.127,,,,1.8357771353
1741758062193488550,-0.127,,,,1.8365474639
1741758062201191836,-0.134,,,,1.8373177925
1741758062208895122,-0.139,,,,1.8380881211
1741758062216598408,-0.117,,,,1.8388584497
1741758062224301694,-0.125,,,,1.8396287783
1741758062232004980,-0.142,,,,1.8403991069
1741758062239708266,-0.134,,,,1.8411694355
1741758062247411552,-0.13,,,,1.8419397641
1741758062255114838,-0.107,,,,1.8427100927
1741758062262818124,-0.085,,,,1.8434804213
1741758062270521410,-0.08,,,,1.8442507499
1741758062278224696,-0.083,,,,1.8450210785
1741758062285927982,-0.122,,,,1.8457914071
1741758062293631268,-0.13,,,,1.8465617357
1741758062301334554,-0.117,,,,1.8473320643
1741758062309037840,-0.125,,,,1.8481023929
1741758062316741126,-0.103,,,,1.8488727215
1741758062324444412,-0.11,,,,1.8496430501
1741758062332147698,-0.11,,,,1.8504133787
1741758062339850984,-0.085,,,,1.8511837073
1741758062347554270,-0.159,,,,1.8519540359
1741758062355257556,-0.282,,,,1.8527243645
1741758062362960842,-0.233,,,,1.8534946931
1741758062370664128,0.225,,,,1.8542650217
1741758062378367414,0.983,,,,1.8550353503
1741758062386070745,1.499,77.0,,,1.8558056834
1741758062393774449,1.182,,,,1.8565760538
1741758062401478153,0.218,,,,1.8573464242
1741758062409181857,-0.262,,,,1.8581167946
1741758062416885561,-0.078,,,,1.858887165
1741758062424589265,-0.083,,,,1.8596575354
1741758062432292969,-0.228,,,,1.8604279058
1741758062439996673,-0.179,,,,1.8611982762
1741758062447700377,-0.161,,,,1.8619686466
1741758062455404081,-0.176,,,,1.862739017
1741758062463107785,-0.147,,,,1.8635093874
1741758062470811489,-0.122,,823.0,,1.8642797578
1741758062478515193,-0.11,,,,1.8650501282
1741758062486218897,-0.12,,,,1.8658204986
1741758062493922601,-0.08,,,,1.866590869
1741758062501626305,-0.049,,,,1.8673612394
1741758062509330009,-0.058,,,,1.8681316098
1741758062517033713,-0.017,,,,1.8689019802
1741758062524737417,0.007,,,,1.8696723506
1741758062532441121,0.026,,,,1.870442721
1741758062540144825,0.073,,,,1.8712130914
1741758062547848529,0.095,,,,1.8719834618
1741758062555552233,0.152,,,,1.8727538322
1741758062563255937,0.203,,,,1.8735242026
1741758062570959641,0.25,,,,1.874294573
1741758062578663345,0.331,,,,1.8750649434
1741758062586367049,0.368,,,,1.8758353138
1741758062594070753,0.407,,,,1.8766056842
1741758062601774457,0.441,,,,1.8773760546
1741758062609478161,0.417,,,,1.878146425
1741758062617181865,0.392,,,,1.8789167954
1741758062624885569,0.316,,,,1.8796871658
1741758062632589273,0.196,,,,1.8804575362
1741758062640292977,0.068,,,,1.8812279066
1741758062647996681,-0.078,,,,1.881998277
1741758062655700385,-0.169,,,,1.8827686474
1741758062663404089,-0.238,,,,1.8835390178
1741758062671107793,-0.299,,,,1.8843093882
1741758062678811497,-0.316,,,,1.8850797586
1741758062686515201,-0.338,,,,1.885850129
1741758062694218905,-0.326,,,,1.8866204994
1741758062701922609,-0.306,,,,1.8873908698
1741758062709626313,-0.316,,,,1.8881612402
1741758062717330017,-0.289,,,,1.8889316106
1741758062725033721,-0.291,,,,1.889701981
1741758062732737425,-0.282,,,,1.8904723514
1741758062740441129,-0.25,,,,1.8912427218
1741758062748144833,-0.269,,,,1.8920130922
1741758062755848537,-0.245,,,,1.8927834626
1741758062763552241,-0.225,,,,1.893553833
1741758062771255945,-0.23,,,,1.8943242034
1741758062778959649,-0.211,,,,1.8950945738
1741758062786663353,-0.228,,,,1.8958649442
1741758062794367057,-0.206,,,,1.8966353146
1741758062802070761,-0.176,,,,1.897405685
1741758062809774465,-0.201,,,,1.8981760554
1741758062817478169,-0.184,,,,1.8989464258
1741758062825181873,-0.186,,,,1.8997167962
1741758062832885577,-0.188,,,,1.9004871666
1741758062840589281,-0.169,,,,1.901257537
1741758062848292985,-0.193,,,,1.9020279074
1741758062855996689,-0.181,,,,1.9027982778
1741758062863700393,-0.171,,,,1.9035686482
1741758062871404097,-0.176,,,,1.9043390186
1741758062879107801,-0.144,,,,1.905109389
1741758062886811505,-0.164,,,,1.9058797594
1741758062894515209,-0.161,,,,1.9066501298
1741758062902218913,-0.152,,,,1.9074205002
1741758062909922617,-0.176,,,,1.9081908706
1741758062917626321,-0.149,,,,1.908961241
1741758062925330025,-0.161,,,,1.9097316114
1741758062933033729,-0.176,,,,1.9105019818
1741758062940737433,-0.147,,,,1.9112723522
1741758062948441194,-0.152,77.0,,,1.9120427283
1741758062956144759,-0.134,,,,1.9128130848
1741758062963848324,-0.142,,,,1.9135834413
1741758062971551889,-0.157,,,,1.9143537978
1741758062979255454,-0.122,,,,1.9151241543
1741758062986959019,-0.137,,,,1.9158945108
1741758062994662584,-0.132,,,,1.9166648673
1741758063002366149,-0.11,,,,1.9174352238
1741758063010069714,-0.125,,,,1.9182055803
1741758063017773279,-0.115,,,,1.9189759368
1741758063025476844,-0.122,,,,1.9197462933
1741758063033180409,-0.125,,,,1.9205166498
1741758063040883974,-0.11,,,,1.9212870063
1741758063048587539,-0.125,,,,1.9220573628
1741758063056291104,-0.117,,,,1.9228277193
1741758063063994669,-0.117,,,,1.9235980758
1741758063071698234,-0.112,,,,1.9243684323
1741758063079401799,-0.073,,,,1.9251387888
1741758063087105364,-0.068,,,,1.9259091453
1741758063094808929,-0.088,,,,1.9266795018
1741758063102512494,-0.12,,,,1.9274498583
1741758063110216059,-0.139,,,,1.9282202148
1741758063117919624,-0.12,,,,1.9289905713
1741758063125623189,-0.122,,,,1.9297609278
1741758063133326754,-0.115,,,,1.9305312843
1741758063141030319,-0.103,,,,1.9313016408
1741758063148733884,-0.117,,,,1.9320719973
1741758063156437449,-0.12,,,,1.9328423538
1741758063164141014,-0.186,,,,1.9336127103
1741758063171844579,-0.296,,,,1.9343830668
1741758063179548144,-0.149,,,,1.9351534233
1741758063187251709,0.397,,,,1.9359237798
1741758063194955274,1.131,,,,1.9366941363
1741758063202658839,1.494,,,,1.9374644928
1741758063210362404,0.929,,,,1.9382348493
1741758063218065969,0.0,,,,1.9390052058
1741758063225769534,-0.23,,,,1.9397755623
1741758063233473099,-0.058,,,,1.9405459188
1741758063241176664,-0.137,,,,1.9413162753
1741758063248880229,-0.233,,,,1.9420866318
1741758063256583794,-0.179,,,,1.9428569883
1741758063264287359,-0.161,,,,1.9436273448
1741758063271990924,-0.176,,,,1.9443977013
1741758063279694489,-0.149,,,,1.9451680578
1741758063287398054,-0.127,,,,1.9459384143
1741758063295101619,-0.12,,,,1.9467087708
1741758063302805184,-0.11,,835.0,,1.9474791273
1741758063310508749,-0.09,,,,1.9482494838
1741758063318212314,-0.061,,,,1.9490198403
1741758063325915879,-0.051,,,,1.9497901968
1741758063333619444,-0.026,,,,1.9505605533
1741758063341323009,0.017,,,,1.9513309098
1741758063349026574,0.046,,,,1.9521012663
1741758063356730139,0.078,,,,1.9528716228
1741758063364433704,0.125,,,,1.9536419793
1741758063372137269,0.174,,,,1.9544123358
1741758063379840834,0.235,,,,1.9551826923
1741758063387544399,0.291,,,,1.9559530488
1741758063395247964,0.341,,,,1.9567234053
1741758063402951529,0.387,,,,1.9574937618
1741758063410655094,0.436,,,,1.9582641183
1741758063418358659,0.456,,,,1.9590344748
1741758063426062224,0.422,,,,1.9598048313
1741758063433765789,0.375,,,,1.9605751878
1741758063441469354,0.289,,,,1.9613455443
1741758063449172919,0.144,,,,1.9621159008
1741758063456876484,0.002,,,,1.9628862573
1741758063464580049,-0.115,,,,1.9636566138
1741758063472283614,-0.208,,,,1.9644269703
1741758063479987179,-0.269,,,,1.9651973268
1741758063487690744,-0.328,,,,1.9659676833
1741758063495394309,-0.345,,,,1.9667380398
1741758063503097874,-0.336,,,,1.9675083963
1741758063510801465,-0.333,,,,1.9682787554
1741758063518504891,-0.331,,,,1.969049098
1741758063526208317,-0.336,,,,1.9698194406
1741758063533911743,-0.328,,,,1.9705897832
1741758063541615169,-0.309,,,,1.9713601258
1741758063549318595,-0.301,,,,1.9721304684
1741758063557022021,-0.284,,,,1.972900811
1741758063564725447,-0.252,,,,1.9736711536
1741758063572428873,-0.235,,,,1.9744414962
1741758063580132299,-0.245,,,,1.9752118388
1741758063587835725,-0.25,,,,1.9759821814
1741758063595539151,-0.223,,,,1.976752524
1741758063603242577,-0.223,,,,1.9775228666
1741758063610946003,-0.23,,,,1.9782932092
1741758063618649429,-0.211,,,,1.9790635518
1741758063626352855,-0.208,,,,1.9798338944
1741758063634056281,-0.208,,,,1.980604237
1741758063641759707,-0.196,,,,1.9813745796
1741758063649463133,-0.188,,,,1.9821449222
1741758063657166559,-0.174,,,,1.9829152648
1741758063664869985,-0.174,,,,1.9836856074
1741758063672573411,-0.186,,,,1.98445595
1741758063680276837,-0.184,,,,1.9852262926
1741758063687980263,-0.184,,,,1.9859966352
1741758063695683689,-0.186,,,,1.9867669778
1741758063703387115,-0.184,,,,1.9875373204
1741758063711090541,-0.176,,,,1.988307663
1741758063718793967,-0.174,,,,1.9890780056
1741758063726497393,-0.181,,,,1.9898483482
1741758063734200819,-0.174,,,,1.9906186908
1741758063741904245,-0.169,,,,1.9913890334
1741758063749607671,-0.174,,,,1.992159376
1741758063757311097,-0.157,,,,1.9929297186
1741758063765014523,-0.149,,,,1.9937000612
1741758063772717949,-0.152,,,,1.9944704038
1741758063780421375,-0.142,,,,1.9952407464
1741758063788124801,-0.147,,,,1.996011089
1741758063795828227,-0.144,,,,1.9967814316
1741758063803531653,-0.137,,,,1.9975517742
1741758063811235079,-0.144,,,,1.9983221168
1741758063818938505,-0.142,,,,1.9990924594
1741758063826641931,-0.139,,,,1.999862802
1741758063834345357,-0.132,,,,2.0006331446
1741758063842048783,-0.137,,,,2.0014034872
1741758063849752209,-0.142,,,,2.0021738298
1741758063857455635,-0.11,,,,2.0029441724
1741758063865159061,-0.083,,,,2.003714515
1741758063872862487,-0.08,,,,2.0044848576
1741758063880565913,-0.1,,,,2.0052552002
1741758063888269339,-0.127,,,,2.0060255428
1741758063895972765,-0.13,,,,2.0067958854
1741758063903676191,-0.12,,,,2.007566228
1741758063911379617,-0.117,,,,2.0083365706
1741758063919083043,-0.105,,,,2.0091069132
1741758063926786469,-0.117,,,,2.0098772558
1741758063934489895,-0.13,,,,2.0106475984
1741758063942193321,-0.137,,,,2.011417941
1741758063949896747,-0.198,,,,2.0121882836
1741758063957600173,-0.267,,,,2.0129586262
1741758063965303599,-0.073,,,,2.0137289688
1741758063973007025,0.542,,,,2.0144993114
1741758063980710451,1.204,,,,2.015269654
1741758063988413877,1.293,,,,2.0160399966
1741758063996117303,0.588,,,,2.0168103392
1741758064003820729,-0.166,,,,2.0175806818
1741758064011524155,-0.191,,,,2.0183510244
1741758064019227581,-0.026,,,,2.019121367
1741758064026931007,-0.157,,,,2.0198917096
1741758064034634433,-0.196,,,,2.0206620522
1741758064042337859,-0.12,,,,2.0214323948
1741758064050041285,-0.147,,,,2.0222027374
1741758064057744711,-0.157,,,,2.02297308
1741758064065448137,-0.117,,,,2.0237434226
1741758064073151566,-0.112,76.0,,,2.0245137655
1741758064080855270,-0.105,,,,2.0252841359
1741758064088558974,-0.063,,783.0,,2.0260545063
1741758064096262678,-0.029,,,,2.0268248767
1741758064103966382,-0.024,,,,2.0275952471
1741758064111670086,-0.012,,,,2.0283656175
1741758064119373790,0.017,,,,2.0291359879
1741758064127077494,0.044,,,,2.0299063583
1741758064134781198,0.085,,,,2.0306767287
1741758064142484902,0.132,,,,2.0314470991
1741758064150188606,0.176,,,,2.0322174695
1741758064157892310,0.233,,,,2.0329878399
1741758064165596014,0.291,,,,2.0337582103
1741758064173299718,0.353,,,,2.0345285807
1741758064181003422,0.402,,,,2.0352989511
1741758064188707126,0.439,,,,2.0360693215
1741758064196410830,0.473,,,,2.0368396919
1741758064204114534,0.473,,,,2.0376100623
1741758064211818238,0.453,,,,2.0383804327
1741758064219521942,0.404,,,,2.0391508031
1741758064227225646,0.274,,,,2.0399211735
1741758064234929350,0.117,,,,2.0406915439
1741758064242633054,-0.024,,,,2.0414619143
1741758064250336758,-0.149,,,,2.0422322847
1741758064258040462,-0.235,,,,2.0430026551
1741758064265744166,-0.304,,,,2.0437730255
1741758064273447870,-0.345,,,,2.0445433959
1741758064281151574,-0.348,,,,2.0453137663
1741758064288855278,-0.355,,,,2.0460841367
1741758064296558982,-0.348,,,,2.0468545071
1741758064304262686,-0.333,,,,2.0476248775
1741758064311966390,-0.326,,,,2.0483952479
1741758064319670094,-0.316,,,,2.0491656183
1741758064327373798,-0.314,,,,2.0499359887
1741758064335077502,-0.299,,,,2.0507063591
1741758064342781206,-0.282,,,,2.0514767295
1741758064350484910,-0.279,,,,2.0522470999
1741758064358188614,-0.264,,,,2.0530174703
1741758064365892318,-0.255,,,,2.0537878407
1741758064373596022,-0.25,,,,2.0545582111
1741758064381299726,-0.238,,,,2.0553285815
1741758064389003430,-0.233,,,,2.0560989519
1741758064396707134,-0.215,,,,2.0568693223
1741758064404410838,-0.206,,,,2.0576396927
1741758064412114542,-0.211,,,,2.0584100631
1741758064419818246,-0.198,,,,2.0591804335
1741758064427521950,-0.193,,,,2.0599508039
1741758064435225654,-0.191,,,,2.0607211743
1741758064442929358,-0.186,,,,2.0614915447
1741758064450633062,-0.188,,,,2.0622619151
1741758064458336766,-0.184,,,,2.0630322855
1741758064466040470,-0.186,,,,2.0638026559
1741758064473744174,-0.184,,,,2.0645730263
1741758064481447878,-0.171,,,,2.0653433967
1741758064489151582,-0.176,,,,2.0661137671
1741758064496855286,-0.171,,,,2.0668841375
1741758064504558990,-0.171,,,,2.0676545079
1741758064512262694,-0.176,,,,2.0684248783
1741758064519966398,-0.169,,,,2.0691952487
1741758064527670102,-0.171,,,,2.0699656191
1741758064535373806,-0.166,,,,2.0707359895
1741758064543077510,-0.157,,,,2.0715063599
1741758064550781214,-0.154,,,,2.0722767303
1741758064558484918,-0.144,,,,2.0730471007
1741758064566188622,-0.147,,,,2.0738174711
1741758064573892326,-0.139,,,,2.0745878415
1741758064581596030,-0.127,,,,2.0753582119
1741758064589299734,-0.147,,,,2.0761285823
1741758064597003438,-0.157,,,,2.0768989527
1741758064604707142,-0.164,,,,2.0776693231
1741758064612410846,-0.164,,,,2.0784396935
1741758064620114550,-0.13,,,,2.0792100639
1741758064627818254,-0.098,,,,2.0799804343
1741758064635522011,-0.095,,,,2.08075081
1741758064643225367,-0.12,,,,2.0815211456
1741758064650928723,-0.142,,,,2.0822914812
1741758064658632079,-0.13,,,,2.0830618168
1741758064666335435,-0.125,,,,2.0838321524
1741758064674038791,-0.125,,,,2.084602488
1741758064681742147,-0.12,,,,2.0853728236
1741758064689445503,-0.127,,,,2.0861431592
1741758064697148859,-0.12,,,,2.0869134948
1741758064704852215,-0.139,,,,2.0876838304
1741758064712555571,-0.235,,,,2.088454166
1741758064720258927,-0.309,,,,2.0892245016
1741758064727962283,-0.08,,,,2.0899948372
1741758064735665639,0.5640000000000001,,,,2.0907651728
1741758064743368995,1.273,,,,2.0915355084
1741758064751072351,1.437,,,,2.092305844
1741758064758775707,0.716,,,,2.0930761796
1741758064766479063,-0.142,,,,2.0938465152
1741758064774182419,-0.22,,,,2.0946168508
1741758064781885775,-0.049,,,,2.0953871864
1741758064789589131,-0.176,,,,2.096157522
1741758064797292487,-0.23,,,,2.0969278576
1741758064804995843,-0.157,,,,2.0976981932
1741758064812699199,-0.161,,,,2.0984685288
1741758064820402555,-0.174,,,,2.0992388644
1741758064828105911,-0.147,,,,2.1000092
1741758064835809267,-0.13,,,,2.1007795356
1741758064843512623,-0.122,,,,2.1015498712
1741758064851215979,-0.11,,,,2.1023202068
1741758064858919335,-0.083,,,,2.1030905424
1741758064866622691,-0.063,,,,2.103860878
1741758064874326047,-0.041,,,,2.1046312136
1741758064882029403,-0.019,,,,2.1054015492
1741758064889732759,0.0,,,,2.1061718848
1741758064897436115,0.041,,806.0,,2.1069422204
1741758064905139471,0.076,,,,2.107712556
1741758064912842827,0.112,,,,2.1084828916
1741758064920546183,0.171,,,,2.1092532272
1741758064928249539,0.225,,,,2.1100235628
1741758064935952895,0.287,,,,2.1107938984
1741758064943656251,0.343,,,,2.111564234
1741758064951359607,0.377,,,,2.1123345696
1741758064959062963,0.407,,,,2.1131049052
1741758064966766319,0.417,,,,2.1138752408
1741758064974469675,0.399,,,,2.1146455764
1741758064982173031,0.336,,,,2.115415912
1741758064989876387,0.208,,,,2.1161862476
1741758064997579743,0.083,,,,2.1169565832
1741758065005283099,-0.041,,,,2.1177269188
1741758065012986455,-0.159,,,,2.1184972544
1741758065020689811,-0.242,,,,2.11926759
1741758065028393167,-0.299,,,,2.1200379256
1741758065036096523,-0.321,,,,2.1208082612
1741758065043799879,-0.331,,,,2.1215785968
1741758065051503235,-0.338,,,,2.1223489324
1741758065059206591,-0.323,,,,2.123119268
1741758065066909947,-0.318,,,,2.1238896036
1741758065074613303,-0.311,,,,2.1246599392
1741758065082316659,-0.296,,,,2.1254302748
1741758065090020015,-0.291,,,,2.1262006104
1741758065097723371,-0.277,,,,2.126970946
1741758065105426727,-0.272,,,,2.1277412816
1741758065113130083,-0.267,,,,2.1285116172
1741758065120833439,-0.25,,,,2.1292819528
1741758065128536795,-0.247,,,,2.1300522884
1741758065136240151,-0.235,,,,2.130822624
1741758065143943507,-0.228,,,,2.1315929596
1741758065151646863,-0.225,,,,2.1323632952
1741758065159350219,-0.208,,,,2.1331336308
1741758065167053575,-0.206,,,,2.1339039664
1741758065174756931,-0.206,,,,2.134674302
1741758065182460287,-0.193,,,,2.1354446376
1741758065190163643,-0.193,,,,2.1362149732
1741758065197867021,-0.188,76.0,,,2.136985311
1741758065205571492,-0.186,,,,2.1377557581
1741758065213275963,-0.184,,,,2.1385262052
1741758065220980434,-0.174,,,,2.1392966523
1741758065228684905,-0.179,,,,2.1400670994
1741758065236389376,-0.171,,,,2.1408375465
1741758065244093847,-0.166,,,,2.1416079936
1741758065251798318,-0.169,,,,2.1423784407
1741758065259502789,-0.157,,,,2.1431488878
1741758065267207260,-0.159,,,,2.1439193349
1741758065274911731,-0.161,,,,2.144689782
1741758065282616202,-0.152,,,,2.1454602291
1741758065290320673,-0.149,,,,2.1462306762
1741758065298025144,-0.139,,,,2.1470011233
1741758065305729615,-0.134,,,,2.1477715704
1741758065313434086,-0.132,,,,2.1485420175
1741758065321138557,-0.125,,,,2.1493124646
1741758065328843028,-0.132,,,,2.1500829117
1741758065336547499,-0.125,,,,2.1508533588
1741758065344251970,-0.12,,,,2.1516238059
1741758065351956441,-0.125,,,,2.152394253
1741758065359660912,-0.122,,,,2.1531647001
1741758065367365383,-0.137,,,,2.1539351472
1741758065375069854,-0.147,,,,2.1547055943
1741758065382774325,-0.134,,,,2.1554760414
1741758065390478796,-0.132,,,,2.1562464885
1741758065398183267,-0.11,,,,2.1570169356
1741758065405887738,-0.083,,,,2.1577873827
1741758065413592209,-0.078,,,,2.1585578298
1741758065421296680,-0.095,,,,2.1593282769
1741758065429001151,-0.117,,,,2.160098724
1741758065436705622,-0.122,,,,2.1608691711
1741758065444410093,-0.122,,,,2.1616396182
1741758065452114564,-0.122,,,,2.1624100653
1741758065459819035,-0.11,,,,2.1631805124
1741758065467523506,-0.112,,,,2.1639509595
1741758065475227977,-0.112,,,,2.1647214066
1741758065482932448,-0.12,,,,2.1654918537
1741758065490636919,-0.191,,,,2.1662623008
