UNIX Timestamp,ECG,HR,RR,Marker,time,norm_time
1787807631306474152,0.424,84.0,,,1787807631306474152,0.0
1787807631314167266,1.068,,,,1787807631314167266,0.0007693114
1787807631321860380,1.213,,,,1787807631321860380,0.0015386228
1787807631329553494,0.188,,,,1787807631329553494,0.0023079342
1787807631337246608,-0.872,,,,1787807631337246608,0.0030772456
1787807631344939722,-0.676,,,,1787807631344939722,0.003846557
1787807631352632836,-0.129,,,,1787807631352632836,0.0046158684
1787807631360325950,-0.116,,,,1787807631360325950,0.0053851798
1787807631368019064,-0.109,,,,1787807631368019064,0.0061544912
1787807631375712178,0.05,,,,1787807631375712178,0.0069238026
1787807631383405292,0.078,,,,1787807631383405292,0.007693114
1787807631391098406,0.081,,,,1787807631391098406,0.0084624254
1787807631398791520,0.132,,,,1787807631398791520,0.0092317368
1787807631406484634,0.144,,,,1787807631406484634,0.0100010482
1787807631414177748,0.147,,,,1787807631414177748,0.0107703596
1787807631421870862,0.17,,,,1787807631421870862,0.011539671
1787807631429563976,0.19,,,,1787807631429563976,0.0123089824
1787807631437257090,0.198,,,,1787807631437257090,0.0130782938
1787807631444950204,0.216,,,,1787807631444950204,0.0138476052
1787807631452643318,0.246,,,,1787807631452643318,0.0146169166
1787807631460336432,0.264,,,,1787807631460336432,0.015386228
1787807631468029546,0.287,,,,1787807631468029546,0.0161555394
1787807631475722660,0.312,,,,1787807631475722660,0.0169248508
1787807631483415774,0.33,,,,1787807631483415774,0.0176941622
1787807631491108888,0.353,,,,1787807631491108888,0.0184634736
1787807631498802002,0.363,,,,1787807631498802002,0.019232785
1787807631506495116,0.371,,,,1787807631506495116,0.0200020964
1787807631514188230,0.376,,,,1787807631514188230,0.0207714078
1787807631521881344,0.358,,,,1787807631521881344,0.0215407192
1787807631529574458,0.33,,,,1787807631529574458,0.0223100306
1787807631537267572,0.3,,,,1787807631537267572,0.023079342
1787807631544960686,0.267,,,,1787807631544960686,0.0238486534
1787807631552653800,0.228,,,,1787807631552653800,0.0246179648
1787807631560346914,0.17,,,,1787807631560346914,0.0253872762
1787807631568040028,0.106,,,,1787807631568040028,0.0261565876
1787807631575733142,0.045,,,,1787807631575733142,0.026925899
1787807631583426256,-0.012,,,,1787807631583426256,0.0276952104
1787807631591119370,-0.053,,,,1787807631591119370,0.0284645218
1787807631598812484,-0.094,,,,1787807631598812484,0.0292338332
1787807631606505598,-0.124,,,,1787807631606505598,0.0300031446
1787807631614198712,-0.132,,,,1787807631614198712,0.030772456
1787807631621891826,-0.139,,,,1787807631621891826,0.0315417674
1787807631629584940,-0.139,,,,1787807631629584940,0.0323110788
1787807631637278054,-0.134,,,,1787807631637278054,0.0330803902
1787807631644971168,-0.127,,,,1787807631644971168,0.0338497016
1787807631652664282,-0.111,,,,1787807631652664282,0.034619013
1787807631660357396,-0.104,,,,1787807631660357396,0.0353883244
1787807631668050510,-0.096,,,,1787807631668050510,0.0361576358
1787807631675743624,-0.089,,,,1787807631675743624,0.0369269472
1787807631683436738,-0.086,,,,1787807631683436738,0.0376962586
1787807631691129852,-0.073,,,,1787807631691129852,0.03846557
1787807631698822966,-0.063,,,,1787807631698822966,0.0392348814
1787807631706516080,-0.048,,,,1787807631706516080,0.0400041928
1787807631714209194,-0.027,,,,1787807631714209194,0.0407735042
1787807631721902308,-0.027,,,,1787807631721902308,0.0415428156
1787807631729595422,-0.027,,,,1787807631729595422,0.042312127
1787807631737288536,-0.03,,,,1787807631737288536,0.0430814384
1787807631744981650,-0.033,,,,1787807631744981650,0.0438507498
1787807631752674764,-0.027,,,,1787807631752674764,0.0446200612
1787807631760367878,-0.03,,,,1787807631760367878,0.0453893726
1787807631768060992,-0.033,,,,1787807631768060992,0.046158684
1787807631775754106,-0.033,,,,1787807631775754106,0.0469279954
1787807631783447220,-0.043,,,,1787807631783447220,0.0476973068
1787807631791140334,-0.04,,,,1787807631791140334,0.0484666182
1787807631798833448,-0.038,,,,1787807631798833448,0.0492359296
1787807631806526562,-0.038,,,,1787807631806526562,0.050005241
1787807631814219676,-0.04,,,,1787807631814219676,0.0507745524
1787807631821912790,-0.05,,,,1787807631821912790,0.0515438638
1787807631829605904,-0.043,,,,1787807631829605904,0.0523131752
1787807631837299018,-0.035,,,,1787807631837299018,0.0530824866
1787807631844992132,-0.035,,,,1787807631844992132,0.053851798
1787807631852685246,-0.03,,,,1787807631852685246,0.0546211094
1787807631860378360,-0.027,,,,1787807631860378360,0.0553904208
1787807631868071476,-0.027,,,,1787807631868071476,0.0561597324
1787807631875765008,-0.03,,,,1787807631875765008,0.0569290856
1787807631883458540,-0.035,,,,1787807631883458540,0.0576984388
1787807631891152072,-0.03,,,,1787807631891152072,0.058467792
1787807631898845604,-0.005,,,,1787807631898845604,0.0592371452
1787807631906539136,0.045,,,,1787807631906539136,0.0600064984
1787807631914232668,0.078,,,,1787807631914232668,0.0607758516
1787807631921926200,0.071,,,,1787807631921926200,0.0615452048
1787807631929619732,0.081,,,,1787807631929619732,0.062314558
1787807631937313264,0.086,,,,1787807631937313264,0.0630839112
1787807631945006796,0.05,,,,1787807631945006796,0.0638532644
1787807631952700328,0.03,,,,1787807631952700328,0.0646226176
1787807631960393860,0.03,,,,1787807631960393860,0.0653919708
1787807631968087392,0.033,,,,1787807631968087392,0.066161324
1787807631975780924,0.033,,695.0,,1787807631975780924,0.0669306772
1787807631983474456,0.033,,,,1787807631983474456,0.0677000304
1787807631991167988,0.038,,,,1787807631991167988,0.0684693836
1787807631998861520,0.035,,,,1787807631998861520,0.0692387368
1787807632006555052,0.025,,,,1787807632006555052,0.07000809
1787807632014248584,0.012,,,,1787807632014248584,0.0707774432
1787807632021942116,0.058,,,,1787807632021942116,0.0715467964
1787807632029635648,0.414,,,,1787807632029635648,0.0723161496
1787807632037329180,1.065,,,,1787807632037329180,0.0730855028
1787807632045022712,1.213,,,,1787807632045022712,0.073854856
1787807632052716244,0.203,,,,1787807632052716244,0.0746242092
1787807632060409776,-0.836,,,,1787807632060409776,0.0753935624
1787807632068103308,-0.661,,,,1787807632068103308,0.0761629156
1787807632075796840,-0.15,,,,1787807632075796840,0.0769322688
1787807632083490372,-0.134,,,,1787807632083490372,0.077701622
1787807632091183904,-0.119,,,,1787807632091183904,0.0784709752
1787807632098877436,0.017,,,,1787807632098877436,0.0792403284
1787807632106570968,0.04,,,,1787807632106570968,0.0800096816
1787807632114264500,0.053,,,,1787807632114264500,0.0807790348
1787807632121958032,0.101,,,,1787807632121958032,0.081548388
1787807632129651564,0.116,,,,1787807632129651564,0.0823177412
1787807632137345096,0.116,,,,1787807632137345096,0.0830870944
1787807632145038628,0.137,,,,1787807632145038628,0.0838564476
1787807632152732160,0.157,,,,1787807632152732160,0.0846258008
1787807632160425692,0.165,,,,1787807632160425692,0.085395154
1787807632168119224,0.183,,,,1787807632168119224,0.0861645072
1787807632175812756,0.205,,,,1787807632175812756,0.0869338604
1787807632183506288,0.221,,,,1787807632183506288,0.0877032136
1787807632191199820,0.249,,,,1787807632191199820,0.0884725668
1787807632198893352,0.279,,,,1787807632198893352,0.08924192
1787807632206586884,0.307,,,,1787807632206586884,0.0900112732
1787807632214280416,0.345,,,,1787807632214280416,0.0907806264
1787807632221973948,0.363,,,,1787807632221973948,0.0915499796
1787807632229667480,0.366,,,,1787807632229667480,0.0923193328
1787807632237361012,0.361,,,,1787807632237361012,0.093088686
1787807632245054544,0.34,,,,1787807632245054544,0.0938580392
1787807632252748076,0.322,,,,1787807632252748076,0.0946273924
1787807632260441608,0.292,,,,1787807632260441608,0.0953967456
1787807632268135140,0.251,,,,1787807632268135140,0.0961660988
1787807632275828672,0.205,,,,1787807632275828672,0.096935452
1787807632283522204,0.147,,,,1787807632283522204,0.0977048052
1787807632291215736,0.089,,,,1787807632291215736,0.0984741584
1787807632298909268,0.027,,,,1787807632298909268,0.0992435116
1787807632306602800,-0.022,,,,1787807632306602800,0.1000128648
1787807632314296332,-0.063,,,,1787807632314296332,0.100782218
1787807632321989864,-0.099,,,,1787807632321989864,0.1015515712
1787807632329683396,-0.119,,,,1787807632329683396,0.1023209244
1787807632337376928,-0.132,,,,1787807632337376928,0.1030902776
1787807632345070460,-0.142,,,,1787807632345070460,0.1038596308
1787807632352763992,-0.137,,,,1787807632352763992,0.104628984
1787807632360457524,-0.132,,,,1787807632360457524,0.1053983372
1787807632368151056,-0.124,,,,1787807632368151056,0.1061676904
1787807632375844588,-0.114,,,,1787807632375844588,0.1069370436
1787807632383538120,-0.109,,,,1787807632383538120,0.1077063968
1787807632391231652,-0.094,,,,1787807632391231652,0.10847575
1787807632398925184,-0.083,,,,1787807632398925184,0.1092451032
1787807632406618716,-0.078,,,,1787807632406618716,0.1100144564
1787807632414312248,-0.066,,,,1787807632414312248,0.1107838096
1787807632422005780,-0.068,,,,1787807632422005780,0.1115531628
1787807632429699316,-0.066,84.0,,,1787807632429699316,0.1123225164
1787807632437393126,-0.055,,,,1787807632437393126,0.1130918974
1787807632445086936,-0.048,,,,1787807632445086936,0.1138612784
1787807632452780746,-0.04,,,,1787807632452780746,0.1146306594
1787807632460474556,-0.043,,,,1787807632460474556,0.1154000404
1787807632468168366,-0.04,,,,1787807632468168366,0.1161694214
1787807632475862176,-0.038,,,,1787807632475862176,0.1169388024
1787807632483555986,-0.048,,,,1787807632483555986,0.1177081834
1787807632491249796,-0.04,,,,1787807632491249796,0.1184775644
1787807632498943606,-0.027,,,,1787807632498943606,0.1192469454
1787807632506637416,-0.027,,,,1787807632506637416,0.1200163264
1787807632514331226,-0.03,,,,1787807632514331226,0.1207857074
1787807632522025036,-0.038,,,,1787807632522025036,0.1215550884
1787807632529718846,-0.038,,,,1787807632529718846,0.1223244694
1787807632537412656,-0.033,,,,1787807632537412656,0.1230938504
1787807632545106466,-0.035,,,,1787807632545106466,0.1238632314
1787807632552800276,-0.033,,,,1787807632552800276,0.1246326124
1787807632560494086,-0.035,,,,1787807632560494086,0.1254019934
1787807632568187896,-0.035,,,,1787807632568187896,0.1261713744
1787807632575881706,-0.027,,,,1787807632575881706,0.1269407554
1787807632583575516,-0.027,,,,1787807632583575516,0.1277101364
1787807632591269326,-0.017,,,,1787807632591269326,0.1284795174
1787807632598963136,-0.017,,,,1787807632598963136,0.1292488984
1787807632606656946,-0.027,,,,1787807632606656946,0.1300182794
1787807632614350756,-0.027,,,,1787807632614350756,0.1307876604
1787807632622044566,-0.025,,,,1787807632622044566,0.1315570414
1787807632629738376,0.002,,,,1787807632629738376,0.1323264224
1787807632637432186,0.048,,,,1787807632637432186,0.1330958034
1787807632645125996,0.066,,,,1787807632645125996,0.1338651844
1787807632652819806,0.066,,,,1787807632652819806,0.1346345654
1787807632660513616,0.073,,,,1787807632660513616,0.1354039464
1787807632668207426,0.068,,699.0,,1787807632668207426,0.1361733274
1787807632675901236,0.043,,,,1787807632675901236,0.1369427084
1787807632683595046,0.015,,,,1787807632683595046,0.1377120894
1787807632691288856,0.025,,,,1787807632691288856,0.1384814704
1787807632698982666,0.035,,,,1787807632698982666,0.1392508514
1787807632706676476,0.03,,,,1787807632706676476,0.1400202324
1787807632714370286,0.043,,,,1787807632714370286,0.1407896134
1787807632722064096,0.053,,,,1787807632722064096,0.1415589944
1787807632729757906,0.05,,,,1787807632729757906,0.1423283754
1787807632737451716,0.035,,,,1787807632737451716,0.1430977564
1787807632745145526,0.012,,,,1787807632745145526,0.1438671374
1787807632752839336,0.081,,,,1787807632752839336,0.1446365184
1787807632760533146,0.457,,,,1787807632760533146,0.1454058994
1787807632768226956,1.098,,,,1787807632768226956,0.1461752804
1787807632775920766,1.21,,,,1787807632775920766,0.1469446614
1787807632783614576,0.183,,,,1787807632783614576,0.1477140424
1787807632791308386,-0.811,,,,1787807632791308386,0.1484834234
1787807632799002196,-0.612,,,,1787807632799002196,0.1492528044
1787807632806696006,-0.129,,,,1787807632806696006,0.1500221854
1787807632814389816,-0.106,,,,1787807632814389816,0.1507915664
1787807632822083626,-0.099,,,,1787807632822083626,0.1515609474
1787807632829777436,0.027,,,,1787807632829777436,0.1523303284
1787807632837471246,0.061,,,,1787807632837471246,0.1530997094
1787807632845165056,0.061,,,,1787807632845165056,0.1538690904
1787807632852858866,0.106,,,,1787807632852858866,0.1546384714
1787807632860552676,0.119,,,,1787807632860552676,0.1554078524
1787807632868246486,0.122,,,,1787807632868246486,0.1561772334
1787807632875940296,0.144,,,,1787807632875940296,0.1569466144
1787807632883634106,0.16,,,,1787807632883634106,0.1577159954
1787807632891327916,0.175,,,,1787807632891327916,0.1584853764
1787807632899021726,0.188,,,,1787807632899021726,0.1592547574
1787807632906715536,0.203,,,,1787807632906715536,0.1600241384
1787807632914409346,0.228,,,,1787807632914409346,0.1607935194
1787807632922103156,0.249,,,,1787807632922103156,0.1615629004
1787807632929796966,0.272,,,,1787807632929796966,0.1623322814
1787807632937490776,0.302,,,,1787807632937490776,0.1631016624
1787807632945184586,0.325,,,,1787807632945184586,0.1638710434
1787807632952878396,0.348,,,,1787807632952878396,0.1646404244
1787807632960572206,0.35,,,,1787807632960572206,0.1654098054
1787807632968266016,0.343,,,,1787807632968266016,0.1661791864
1787807632975959826,0.335,,,,1787807632975959826,0.1669485674
1787807632983653636,0.31,,,,1787807632983653636,0.1677179484
1787807632991347502,0.284,,,,1787807632991347502,0.168487335
1787807632999040964,0.246,,,,1787807632999040964,0.1692566812
1787807633006734426,0.195,,,,1787807633006734426,0.1700260274
1787807633014427888,0.142,,,,1787807633014427888,0.1707953736
1787807633022121350,0.078,,,,1787807633022121350,0.1715647198
1787807633029814812,0.02,,,,1787807633029814812,0.172334066
1787807633037508274,-0.025,,,,1787807633037508274,0.1731034122
1787807633045201736,-0.071,,,,1787807633045201736,0.1738727584
1787807633052895198,-0.099,,,,1787807633052895198,0.1746421046
1787807633060588660,-0.111,,,,1787807633060588660,0.1754114508
1787807633068282122,-0.122,,,,1787807633068282122,0.176180797
1787807633075975584,-0.127,,,,1787807633075975584,0.1769501432
1787807633083669046,-0.129,,,,1787807633083669046,0.1777194894
1787807633091362508,-0.119,,,,1787807633091362508,0.1784888356
1787807633099055970,-0.109,,,,1787807633099055970,0.1792581818
1787807633106749432,-0.104,,,,1787807633106749432,0.180027528
1787807633114442894,-0.091,,,,1787807633114442894,0.1807968742
1787807633122136356,-0.086,,,,1787807633122136356,0.1815662204
1787807633129829818,-0.078,,,,1787807633129829818,0.1823355666
1787807633137523280,-0.066,,,,1787807633137523280,0.1831049128
1787807633145216742,-0.066,,,,1787807633145216742,0.183874259
1787807633152910204,-0.058,,,,1787807633152910204,0.1846436052
1787807633160603666,-0.05,,,,1787807633160603666,0.1854129514
1787807633168297128,-0.05,,,,1787807633168297128,0.1861822976
1787807633175990590,-0.045,,,,1787807633175990590,0.1869516438
1787807633183684052,-0.038,,,,1787807633183684052,0.18772099
1787807633191377514,-0.027,,,,1787807633191377514,0.1884903362
1787807633199070976,-0.03,,,,1787807633199070976,0.1892596824
1787807633206764438,-0.035,,,,1787807633206764438,0.1900290286
1787807633214457900,-0.03,,,,1787807633214457900,0.1907983748
1787807633222151362,-0.027,,,,1787807633222151362,0.191567721
1787807633229844824,-0.017,,,,1787807633229844824,0.1923370672
1787807633237538286,-0.012,,,,1787807633237538286,0.1931064134
1787807633245231748,-0.02,,,,1787807633245231748,0.1938757596
1787807633252925210,-0.02,,,,1787807633252925210,0.1946451058
1787807633260618672,-0.022,,,,1787807633260618672,0.195414452
1787807633268312134,-0.022,,,,1787807633268312134,0.1961837982
1787807633276005596,-0.02,,,,1787807633276005596,0.1969531444
1787807633283699058,-0.025,,,,1787807633283699058,0.1977224906
1787807633291392520,-0.022,,,,1787807633291392520,0.1984918368
1787807633299085982,-0.02,,,,1787807633299085982,0.199261183
1787807633306779444,-0.025,,,,1787807633306779444,0.2000305292
1787807633314472906,-0.02,,,,1787807633314472906,0.2007998754
1787807633322166368,-0.02,,,,1787807633322166368,0.2015692216
1787807633329859830,-0.02,,,,1787807633329859830,0.2023385678
1787807633337553292,-0.015,,,,1787807633337553292,0.203107914
1787807633345246754,-0.015,,,,1787807633345246754,0.2038772602
1787807633352940216,-0.002,,,,1787807633352940216,0.2046466064
1787807633360633678,0.03,,690.0,,1787807633360633678,0.2054159526
1787807633368327140,0.063,,,,1787807633368327140,0.2061852988
1787807633376020602,0.073,,,,1787807633376020602,0.206954645
1787807633383714064,0.073,,,,1787807633383714064,0.2077239912
1787807633391407526,0.073,,,,1787807633391407526,0.2084933374
1787807633399100988,0.05,,,,1787807633399100988,0.2092626836
1787807633406794450,0.017,,,,1787807633406794450,0.2100320298
1787807633414487912,0.015,,,,1787807633414487912,0.210801376
1787807633422181374,0.025,,,,1787807633422181374,0.2115707222
1787807633429874836,0.033,,,,1787807633429874836,0.2123400684
1787807633437568298,0.038,,,,1787807633437568298,0.2131094146
1787807633445261760,0.038,,,,1787807633445261760,0.2138787608
1787807633452955222,0.04,,,,1787807633452955222,0.214648107
1787807633460648684,0.033,,,,1787807633460648684,0.2154174532
1787807633468342146,0.012,,,,1787807633468342146,0.2161867994
1787807633476035608,0.04,,,,1787807633476035608,0.2169561456
1787807633483729070,0.302,,,,1787807633483729070,0.2177254918
1787807633491422532,0.915,,,,1787807633491422532,0.218494838
1787807633499115994,1.289,,,,1787807633499115994,0.2192641842
1787807633506809456,0.556,,,,1787807633506809456,0.2200335304
1787807633514502918,-0.633,,,,1787807633514502918,0.2208028766
1787807633522196380,-0.78,,,,1787807633522196380,0.2215722228
1787807633529889842,-0.233,,,,1787807633529889842,0.222341569
1787807633537583304,-0.089,,,,1787807633537583304,0.2231109152
1787807633545276766,-0.129,,,,1787807633545276766,0.2238802614
1787807633552970256,-0.005,83.0,,,1787807633552970256,0.2246496104
1787807633560663579,0.063,,,,1787807633560663579,0.2254189427
1787807633568356902,0.053,,,,1787807633568356902,0.226188275
1787807633576050225,0.091,,,,1787807633576050225,0.2269576073
1787807633583743548,0.119,,,,1787807633583743548,0.2277269396
1787807633591436871,0.124,,,,1787807633591436871,0.2284962719
1787807633599130194,0.139,,,,1787807633599130194,0.2292656042
1787807633606823517,0.16,,,,1787807633606823517,0.2300349365
1787807633614516840,0.18,,,,1787807633614516840,0.2308042688
1787807633622210163,0.198,,,,1787807633622210163,0.2315736011
1787807633629903486,0.218,,,,1787807633629903486,0.2323429334
1787807633637596809,0.236,,,,1787807633637596809,0.2331122657
1787807633645290132,0.251,,,,1787807633645290132,0.233881598
1787807633652983455,0.282,,,,1787807633652983455,0.2346509303
1787807633660676778,0.305,,,,1787807633660676778,0.2354202626
1787807633668370101,0.325,,,,1787807633668370101,0.2361895949
1787807633676063424,0.353,,,,1787807633676063424,0.2369589272
1787807633683756747,0.363,,,,1787807633683756747,0.2377282595
1787807633691450070,0.366,,,,1787807633691450070,0.2384975918
1787807633699143393,0.353,,,,1787807633699143393,0.2392669241
1787807633706836716,0.325,,,,1787807633706836716,0.2400362564
1787807633714530039,0.302,,,,1787807633714530039,0.2408055887
1787807633722223362,0.277,,,,1787807633722223362,0.241574921
1787807633729916685,0.239,,,,1787807633729916685,0.2423442533
1787807633737610008,0.185,,,,1787807633737610008,0.2431135856
1787807633745303331,0.119,,,,1787807633745303331,0.2438829179
1787807633752996654,0.063,,,,1787807633752996654,0.2446522502
1787807633760689977,0.007,,,,1787807633760689977,0.2454215825
1787807633768383300,-0.04,,,,1787807633768383300,0.2461909148
1787807633776076623,-0.073,,,,1787807633776076623,0.2469602471
1787807633783769946,-0.104,,,,1787807633783769946,0.2477295794
1787807633791463269,-0.119,,,,1787807633791463269,0.2484989117
1787807633799156592,-0.124,,,,1787807633799156592,0.249268244
1787807633806849915,-0.127,,,,1787807633806849915,0.2500375763
1787807633814543238,-0.124,,,,1787807633814543238,0.2508069086
1787807633822236561,-0.122,,,,1787807633822236561,0.2515762409
1787807633829929884,-0.109,,,,1787807633829929884,0.2523455732
1787807633837623207,-0.091,,,,1787807633837623207,0.2531149055
1787807633845316530,-0.089,,,,1787807633845316530,0.2538842378
1787807633853009853,-0.078,,,,1787807633853009853,0.2546535701
1787807633860703176,-0.071,,,,1787807633860703176,0.2554229024
1787807633868396499,-0.066,,,,1787807633868396499,0.2561922347
1787807633876089822,-0.058,,,,1787807633876089822,0.256961567
1787807633883783145,-0.058,,,,1787807633883783145,0.2577308993
1787807633891476468,-0.053,,,,1787807633891476468,0.2585002316
1787807633899169791,-0.05,,,,1787807633899169791,0.2592695639
1787807633906863114,-0.053,,,,1787807633906863114,0.2600388962
1787807633914556437,-0.045,,,,1787807633914556437,0.2608082285
1787807633922249760,-0.035,,,,1787807633922249760,0.2615775608
1787807633929943083,-0.03,,,,1787807633929943083,0.2623468931
1787807633937636406,-0.035,,,,1787807633937636406,0.2631162254
1787807633945329729,-0.045,,,,1787807633945329729,0.2638855577
1787807633953023052,-0.045,,,,1787807633953023052,0.26465489
1787807633960716375,-0.048,,,,1787807633960716375,0.2654242223
1787807633968409698,-0.048,,,,1787807633968409698,0.2661935546
1787807633976103021,-0.04,,,,1787807633976103021,0.2669628869
1787807633983796344,-0.04,,,,1787807633983796344,0.2677322192
1787807633991489667,-0.043,,,,1787807633991489667,0.2685015515
1787807633999182990,-0.043,,,,1787807633999182990,0.2692708838
1787807634006876313,-0.043,,,,1787807634006876313,0.2700402161
1787807634014569636,-0.038,,,,1787807634014569636,0.2708095484
1787807634022262959,-0.043,,,,1787807634022262959,0.2715788807
1787807634029956282,-0.048,,,,1787807634029956282,0.272348213
1787807634037649605,-0.038,,,,1787807634037649605,0.2731175453
1787807634045342928,-0.035,,686.0,,1787807634045342928,0.2738868776
1787807634053036251,-0.035,,,,1787807634053036251,0.2746562099
1787807634060729574,-0.035,,,,1787807634060729574,0.2754255422
1787807634068422897,-0.033,,,,1787807634068422897,0.2761948745
1787807634076116220,-0.03,,,,1787807634076116220,0.2769642068
1787807634083809543,-0.033,,,,1787807634083809543,0.2777335391
1787807634091502866,-0.027,,,,1787807634091502866,0.2785028714
1787807634099196189,-0.002,,,,1787807634099196189,0.2792722037
1787807634106889512,0.033,,,,1787807634106889512,0.280041536
1787807634114582836,0.058,,,,1787807634114582836,0.2808108684
1787807634122276368,0.055,,,,1787807634122276368,0.2815802216
1787807634129969900,0.058,,,,1787807634129969900,0.2823495748
1787807634137663432,0.061,,,,1787807634137663432,0.283118928
1787807634145356964,0.033,,,,1787807634145356964,0.2838882812
1787807634153050496,0.012,,,,1787807634153050496,0.2846576344
1787807634160744028,0.015,,,,1787807634160744028,0.2854269876
1787807634168437560,0.025,,,,1787807634168437560,0.2861963408
1787807634176131092,0.038,,,,1787807634176131092,0.286965694
1787807634183824624,0.043,,,,1787807634183824624,0.2877350472
1787807634191518156,0.043,,,,1787807634191518156,0.2885044004
1787807634199211688,0.043,,,,1787807634199211688,0.2892737536
1787807634206905220,0.038,,,,1787807634206905220,0.2900431068
1787807634214598752,0.02,,,,1787807634214598752,0.29081246
1787807634222292284,0.086,,,,1787807634222292284,0.2915818132
1787807634229985816,0.473,,,,1787807634229985816,0.2923511664
1787807634237679348,1.121,,,,1787807634237679348,0.2931205196
1787807634245372880,1.202,,,,1787807634245372880,0.2938898728
1787807634253066412,0.147,,,,1787807634253066412,0.294659226
1787807634260759944,-0.836,,,,1787807634260759944,0.2954285792
1787807634268453476,-0.61,,,,1787807634268453476,0.2961979324
1787807634276147008,-0.119,,,,1787807634276147008,0.2969672856
1787807634283840540,-0.109,,,,1787807634283840540,0.2977366388
1787807634291534072,-0.083,,,,1787807634291534072,0.298505992
1787807634299227604,0.048,,,,1787807634299227604,0.2992753452
1787807634306921136,0.071,,,,1787807634306921136,0.3000446984
1787807634314614668,0.076,,,,1787807634314614668,0.3008140516
1787807634322308200,0.122,,,,1787807634322308200,0.3015834048
1787807634330001732,0.137,,,,1787807634330001732,0.302352758
1787807634337695264,0.139,,,,1787807634337695264,0.3031221112
1787807634345388796,0.16,,,,1787807634345388796,0.3038914644
1787807634353082328,0.178,,,,1787807634353082328,0.3046608176
1787807634360775860,0.185,,,,1787807634360775860,0.3054301708
1787807634368469392,0.198,,,,1787807634368469392,0.306199524
1787807634376162924,0.218,,,,1787807634376162924,0.3069688772
1787807634383856456,0.241,,,,1787807634383856456,0.3077382304
1787807634391549988,0.261,,,,1787807634391549988,0.3085075836
1787807634399243520,0.279,,,,1787807634399243520,0.3092769368
1787807634406937052,0.302,,,,1787807634406937052,0.31004629
1787807634414630584,0.333,,,,1787807634414630584,0.3108156432
1787807634422324116,0.356,,,,1787807634422324116,0.3115849964
1787807634430017648,0.363,,,,1787807634430017648,0.3123543496
1787807634437711180,0.356,,,,1787807634437711180,0.3131237028
1787807634445404712,0.338,,,,1787807634445404712,0.313893056
1787807634453098244,0.32,,,,1787807634453098244,0.3146624092
1787807634460791776,0.292,,,,1787807634460791776,0.3154317624
1787807634468485308,0.254,,,,1787807634468485308,0.3162011156
1787807634476178840,0.213,,,,1787807634476178840,0.3169704688
1787807634483872372,0.16,,,,1787807634483872372,0.317739822
1787807634491565904,0.094,,,,1787807634491565904,0.3185091752
1787807634499259436,0.038,,,,1787807634499259436,0.3192785284
1787807634506952968,-0.007,,,,1787807634506952968,0.3200478816
1787807634514646500,-0.053,,,,1787807634514646500,0.3208172348
1787807634522340032,-0.091,,,,1787807634522340032,0.321586588
1787807634530033564,-0.116,,,,1787807634530033564,0.3223559412
1787807634537727096,-0.132,,,,1787807634537727096,0.3231252944
1787807634545420628,-0.147,,,,1787807634545420628,0.3238946476
1787807634553114160,-0.15,,,,1787807634553114160,0.3246640008
1787807634560807692,-0.142,,,,1787807634560807692,0.325433354
1787807634568501224,-0.127,,,,1787807634568501224,0.3262027072
1787807634576194756,-0.124,,,,1787807634576194756,0.3269720604
1787807634583888288,-0.124,,,,1787807634583888288,0.3277414136
1787807634591581820,-0.116,,,,1787807634591581820,0.3285107668
1787807634599275352,-0.104,,,,1787807634599275352,0.32928012
1787807634606968884,-0.101,,,,1787807634606968884,0.3300494732
1787807634614662416,-0.096,,,,1787807634614662416,0.3308188264
1787807634622355948,-0.083,,,,1787807634622355948,0.3315881796
1787807634630049480,-0.078,,,,1787807634630049480,0.3323575328
1787807634637743012,-0.078,,,,1787807634637743012,0.333126886
1787807634645436544,-0.076,,,,1787807634645436544,0.3338962392
1787807634653130076,-0.073,,,,1787807634653130076,0.3346655924
1787807634660823608,-0.066,,,,1787807634660823608,0.3354349456
1787807634668517140,-0.058,,,,1787807634668517140,0.3362042988
1787807634676210676,-0.061,83.0,,,1787807634676210676,0.3369736524
1787807634683904208,-0.066,,,,1787807634683904208,0.3377430056
1787807634691597740,-0.063,,,,1787807634691597740,0.3385123588
1787807634699291272,-0.061,,,,1787807634699291272,0.339281712
1787807634706984804,-0.055,,,,1787807634706984804,0.3400510652
1787807634714678336,-0.055,,,,1787807634714678336,0.3408204184
1787807634722371868,-0.066,,,,1787807634722371868,0.3415897716
1787807634730065400,-0.066,,,,1787807634730065400,0.3423591248
1787807634737758932,-0.048,,688.0,,1787807634737758932,0.343128478
1787807634745452464,-0.043,,,,1787807634745452464,0.3438978312
1787807634753145996,-0.045,,,,1787807634753145996,0.3446671844
1787807634760839528,-0.045,,,,1787807634760839528,0.3454365376
1787807634768533060,-0.035,,,,1787807634768533060,0.3462058908
1787807634776226592,-0.027,,,,1787807634776226592,0.346975244
1787807634783920124,-0.017,,,,1787807634783920124,0.3477445972
1787807634791613656,-0.012,,,,1787807634791613656,0.3485139504
1787807634799307188,-0.017,,,,1787807634799307188,0.3492833036
1787807634807000720,-0.022,,,,1787807634807000720,0.3500526568
1787807634814694252,-0.022,,,,1787807634814694252,0.35082201
1787807634822387784,-0.017,,,,1787807634822387784,0.3515913632
1787807634830081316,0.007,,,,1787807634830081316,0.3523607164
1787807634837774848,0.045,,,,1787807634837774848,0.3531300696
1787807634845468380,0.063,,,,1787807634845468380,0.3538994228
1787807634853161912,0.076,,,,1787807634853161912,0.354668776
1787807634860855444,0.081,,,,1787807634860855444,0.3554381292
1787807634868548976,0.053,,,,1787807634868548976,0.3562074824
1787807634876242508,0.01,,,,1787807634876242508,0.3569768356
1787807634883936040,0.0,,,,1787807634883936040,0.3577461888
1787807634891629572,0.012,,,,1787807634891629572,0.358515542
1787807634899323104,0.01,,,,1787807634899323104,0.3592848952
1787807634907016636,0.012,,,,1787807634907016636,0.3600542484
1787807634914710168,0.027,,,,1787807634914710168,0.3608236016
1787807634922403700,0.033,,,,1787807634922403700,0.3615929548
1787807634930097232,0.033,,,,1787807634930097232,0.362362308
1787807634937790764,0.027,,,,1787807634937790764,0.3631316612
1787807634945484296,0.025,,,,1787807634945484296,0.3639010144
1787807634953177828,0.139,,,,1787807634953177828,0.3646703676
1787807634960871360,0.59,,,,1787807634960871360,0.3654397208
1787807634968564892,1.159,,,,1787807634968564892,0.366209074
1787807634976258424,0.928,,,,1787807634976258424,0.3669784272
1787807634983951956,-0.284,,,,1787807634983951956,0.3677477804
1787807634991645488,-0.971,,,,1787807634991645488,0.3685171336
1787807634999339020,-0.513,,,,1787807634999339020,0.3692864868
1787807635007032552,-0.129,,,,1787807635007032552,0.37005584
1787807635014726084,-0.162,,,,1787807635014726084,0.3708251932
1787807635022419616,-0.071,,,,1787807635022419616,0.3715945464
1787807635030113148,0.053,,,,1787807635030113148,0.3723638996
1787807635037806680,0.05,,,,1787807635037806680,0.3731332528
1787807635045500212,0.076,,,,1787807635045500212,0.373902606
1787807635053193744,0.129,,,,1787807635053193744,0.3746719592
1787807635060887276,0.137,,,,1787807635060887276,0.3754413124
1787807635068580808,0.142,,,,1787807635068580808,0.3762106656
1787807635076274340,0.165,,,,1787807635076274340,0.3769800188
1787807635083967872,0.18,,,,1787807635083967872,0.377749372
1787807635091661404,0.193,,,,1787807635091661404,0.3785187252
1787807635099354936,0.205,,,,1787807635099354936,0.3792880784
1787807635107048468,0.218,,,,1787807635107048468,0.3800574316
1787807635114742000,0.241,,,,1787807635114742000,0.3808267848
1787807635122435532,0.269,,,,1787807635122435532,0.381596138
1787807635130129064,0.287,,,,1787807635130129064,0.3823654912
1787807635137822596,0.302,,,,1787807635137822596,0.3831348444
1787807635145516128,0.328,,,,1787807635145516128,0.3839041976
1787807635153209660,0.353,,,,1787807635153209660,0.3846735508
1787807635160903192,0.363,,,,1787807635160903192,0.385442904
1787807635168596724,0.361,,,,1787807635168596724,0.3862122572
1787807635176290256,0.34,,,,1787807635176290256,0.3869816104
1787807635183983788,0.307,,,,1787807635183983788,0.3877509636
1787807635191677320,0.279,,,,1787807635191677320,0.3885203168
1787807635199370852,0.251,,,,1787807635199370852,0.38928967
1787807635207064384,0.205,,,,1787807635207064384,0.3900590232
1787807635214757916,0.147,,,,1787807635214757916,0.3908283764
1787807635222451448,0.091,,,,1787807635222451448,0.3915977296
1787807635230144980,0.038,,,,1787807635230144980,0.3923670828
1787807635237838518,-0.005,83.0,,,1787807635237838518,0.3931364366
1787807635245532050,-0.033,,,,1787807635245532050,0.3939057898
1787807635253225582,-0.063,,,,1787807635253225582,0.394675143
1787807635260919114,-0.086,,,,1787807635260919114,0.3954444962
1787807635268612646,-0.089,,,,1787807635268612646,0.3962138494
1787807635276306178,-0.094,,,,1787807635276306178,0.3969832026
1787807635283999710,-0.104,,,,1787807635283999710,0.3977525558
1787807635291693242,-0.096,,,,1787807635291693242,0.398521909
1787807635299386774,-0.081,,,,1787807635299386774,0.3992912622
1787807635307080306,-0.076,,,,1787807635307080306,0.4000606154
1787807635314773838,-0.071,,,,1787807635314773838,0.4008299686
1787807635322467370,-0.058,,,,1787807635322467370,0.4015993218
1787807635330160902,-0.05,,,,1787807635330160902,0.402368675
1787807635337854434,-0.045,,,,1787807635337854434,0.4031380282
1787807635345547966,-0.04,,,,1787807635345547966,0.4039073814
1787807635353241498,-0.033,,,,1787807635353241498,0.4046767346
1787807635360935030,-0.027,,,,1787807635360935030,0.4054460878
1787807635368628562,-0.027,,,,1787807635368628562,0.406215441
1787807635376322094,-0.025,,,,1787807635376322094,0.4069847942
1787807635384015626,-0.025,,,,1787807635384015626,0.4077541474
1787807635391709158,-0.022,,,,1787807635391709158,0.4085235006
1787807635399402690,-0.015,,,,1787807635399402690,0.4092928538
1787807635407096222,-0.007,,,,1787807635407096222,0.410062207
1787807635414789754,-0.01,,,,1787807635414789754,0.4108315602
1787807635422483286,-0.02,,688.0,,1787807635422483286,0.4116009134
1787807635430176818,-0.025,,,,1787807635430176818,0.4123702666
1787807635437870350,-0.025,,,,1787807635437870350,0.4131396198
1787807635445563882,-0.027,,,,1787807635445563882,0.413908973
1787807635453257414,-0.033,,,,1787807635453257414,0.4146783262
1787807635460950946,-0.03,,,,1787807635460950946,0.4154476794
1787807635468644478,-0.027,,,,1787807635468644478,0.4162170326
1787807635476338010,-0.027,,,,1787807635476338010,0.4169863858
1787807635484031542,-0.03,,,,1787807635484031542,0.417755739
1787807635491725074,-0.022,,,,1787807635491725074,0.4185250922
1787807635499418606,-0.02,,,,1787807635499418606,0.4192944454
1787807635507112138,-0.022,,,,1787807635507112138,0.4200637986
1787807635514805670,-0.015,,,,1787807635514805670,0.4208331518
1787807635522499202,-0.01,,,,1787807635522499202,0.421602505
1787807635530192734,-0.012,,,,1787807635530192734,0.4223718582
1787807635537886266,0.012,,,,1787807635537886266,0.4231412114
1787807635545579798,0.055,,,,1787807635545579798,0.4239105646
1787807635553273330,0.073,,,,1787807635553273330,0.4246799178
1787807635560966862,0.068,,,,1787807635560966862,0.425449271
1787807635568660394,0.073,,,,1787807635568660394,0.4262186242
1787807635576353926,0.058,,,,1787807635576353926,0.4269879774
1787807635584047458,0.025,,,,1787807635584047458,0.4277573306
1787807635591740990,0.022,,,,1787807635591740990,0.4285266838
1787807635599434522,0.035,,,,1787807635599434522,0.429296037
1787807635607128054,0.027,,,,1787807635607128054,0.4300653902
1787807635614821586,0.02,,,,1787807635614821586,0.4308347434
1787807635622515118,0.027,,,,1787807635622515118,0.4316040966
1787807635630208650,0.03,,,,1787807635630208650,0.4323734498
1787807635637902182,0.033,,,,1787807635637902182,0.433142803
1787807635645595714,0.035,,,,1787807635645595714,0.4339121562
1787807635653289246,0.04,,,,1787807635653289246,0.4346815094
1787807635660982778,0.167,,,,1787807635660982778,0.4354508626
1787807635668676310,0.645,,,,1787807635668676310,0.4362202158
1787807635676369842,1.23,,,,1787807635676369842,0.436989569
1787807635684063374,0.979,,,,1787807635684063374,0.4377589222
1787807635691756906,-0.261,,,,1787807635691756906,0.4385282754
1787807635699450438,-0.966,,,,1787807635699450438,0.4392976286
1787807635707143970,-0.503,,,,1787807635707143970,0.4400669818
1787807635714837502,-0.111,,,,1787807635714837502,0.440836335
1787807635722531034,-0.147,,,,1787807635722531034,0.4416056882
1787807635730224566,-0.045,,,,1787807635730224566,0.4423750414
1787807635737918098,0.094,,,,1787807635737918098,0.4431443946
1787807635745611630,0.096,,,,1787807635745611630,0.4439137478
1787807635753305162,0.111,,,,1787807635753305162,0.444683101
1787807635760998694,0.157,,,,1787807635760998694,0.4454524542
1787807635768692226,0.162,,,,1787807635768692226,0.4462218074
1787807635776385758,0.167,,,,1787807635776385758,0.4469911606
1787807635784079290,0.19,,,,1787807635784079290,0.4477605138
1787807635791772822,0.211,,,,1787807635791772822,0.448529867
1787807635799466358,0.223,,,,1787807635799466358,0.4492992206
1787807635807159890,0.241,,,,1787807635807159890,0.4500685738
1787807635814853422,0.269,,,,1787807635814853422,0.450837927
1787807635822546954,0.284,,,,1787807635822546954,0.4516072802
1787807635830240486,0.289,,,,1787807635830240486,0.4523766334
1787807635837934018,0.297,,,,1787807635837934018,0.4531459866
1787807635845627550,0.322,,,,1787807635845627550,0.4539153398
1787807635853321082,0.361,,,,1787807635853321082,0.454684693
1787807635861014614,0.384,,,,1787807635861014614,0.4554540462
1787807635868708146,0.381,,,,1787807635868708146,0.4562233994
1787807635876401678,0.371,,,,1787807635876401678,0.4569927526
1787807635884095210,0.358,,,,1787807635884095210,0.4577621058
1787807635891788742,0.34,,,,1787807635891788742,0.458531459
1787807635899482274,0.31,,,,1787807635899482274,0.4593008122
1787807635907175806,0.267,,,,1787807635907175806,0.4600701654
1787807635914869338,0.218,,,,1787807635914869338,0.4608395186
1787807635922562870,0.167,,,,1787807635922562870,0.4616088718
1787807635930256402,0.109,,,,1787807635930256402,0.462378225
1787807635937949934,0.048,,,,1787807635937949934,0.4631475782
1787807635945643466,-0.002,,,,1787807635945643466,0.4639169314
1787807635953336998,-0.04,,,,1787807635953336998,0.4646862846
1787807635961030530,-0.076,,,,1787807635961030530,0.4654556378
1787807635968724062,-0.104,,,,1787807635968724062,0.466224991
1787807635976417594,-0.119,,,,1787807635976417594,0.4669943442
1787807635984111126,-0.127,,,,1787807635984111126,0.4677636974
1787807635991804658,-0.124,,,,1787807635991804658,0.4685330506
1787807635999498190,-0.111,,,,1787807635999498190,0.4693024038
1787807636007191722,-0.104,,,,1787807636007191722,0.470071757
1787807636014885254,-0.094,,,,1787807636014885254,0.4708411102
1787807636022578786,-0.086,,,,1787807636022578786,0.4716104634
1787807636030272318,-0.078,,,,1787807636030272318,0.4723798166
1787807636037965850,-0.073,,,,1787807636037965850,0.4731491698
1787807636045659382,-0.066,,,,1787807636045659382,0.473918523
1787807636053352914,-0.055,,,,1787807636053352914,0.4746878762
1787807636061046446,-0.048,,,,1787807636061046446,0.4754572294
1787807636068739978,-0.043,,,,1787807636068739978,0.4762265826
1787807636076433510,-0.04,,,,1787807636076433510,0.4769959358
1787807636084127042,-0.038,,,,1787807636084127042,0.477765289
1787807636091820574,-0.033,,,,1787807636091820574,0.4785346422
1787807636099514106,-0.035,,,,1787807636099514106,0.4793039954
1787807636107207638,-0.04,,,,1787807636107207638,0.4800733486
1787807636114901170,-0.04,,,,1787807636114901170,0.4808427018
1787807636122594702,-0.04,,696.0,,1787807636122594702,0.481612055
1787807636130288234,-0.043,,,,1787807636130288234,0.4823814082
1787807636137981766,-0.035,,,,1787807636137981766,0.4831507614
1787807636145675298,-0.03,,,,1787807636145675298,0.4839201146
1787807636153368830,-0.033,,,,1787807636153368830,0.4846894678
1787807636161062362,-0.035,,,,1787807636161062362,0.485458821
1787807636168755894,-0.033,,,,1787807636168755894,0.4862281742
1787807636176449426,-0.03,,,,1787807636176449426,0.4869975274
1787807636184142958,-0.03,,,,1787807636184142958,0.4877668806
1787807636191836490,-0.035,,,,1787807636191836490,0.4885362338
1787807636199530022,-0.038,,,,1787807636199530022,0.489305587
1787807636207223554,-0.038,,,,1787807636207223554,0.4900749402
1787807636214917086,-0.025,,,,1787807636214917086,0.4908442934
1787807636222610618,0.002,,,,1787807636222610618,0.4916136466
1787807636230304150,0.027,,,,1787807636230304150,0.4923829998
1787807636237997682,0.033,,,,1787807636237997682,0.493152353
1787807636245691214,0.043,,,,1787807636245691214,0.4939217062
1787807636253384746,0.066,,,,1787807636253384746,0.4946910594
1787807636261078278,0.043,,,,1787807636261078278,0.4954604126
1787807636268771810,0.0,,,,1787807636268771810,0.4962297658
1787807636276465342,-0.002,,,,1787807636276465342,0.496999119
1787807636284158874,0.01,,,,1787807636284158874,0.4977684722
1787807636291852406,0.01,,,,1787807636291852406,0.4985378254
1787807636299545938,0.012,,,,1787807636299545938,0.4993071786
1787807636307239470,0.015,,,,1787807636307239470,0.5000765318
1787807636314933002,0.022,,,,1787807636314933002,0.500845885
1787807636322626534,0.033,,,,1787807636322626534,0.5016152382
1787807636330320066,0.022,,,,1787807636330320066,0.5023845914
1787807636338013598,0.022,,,,1787807636338013598,0.5031539446
1787807636345707130,0.223,,,,1787807636345707130,0.5039232978
1787807636353400662,0.8210000000000001,,,,1787807636353400662,0.504692651
1787807636361094198,1.317,83.0,,,1787807636361094198,0.5054620046
1787807636368787730,0.719,,,,1787807636368787730,0.5062313578
1787807636376481262,-0.5740000000000001,,,,1787807636376481262,0.507000711
1787807636384174794,-0.895,,,,1787807636384174794,0.5077700642
1787807636391868326,-0.295,,,,1787807636391868326,0.5085394174
1787807636399561858,-0.089,,,,1787807636399561858,0.5093087706
1787807636407255390,-0.162,,,,1787807636407255390,0.5100781238
1787807636414948922,-0.005,,,,1787807636414948922,0.510847477
1787807636422642454,0.091,,,,1787807636422642454,0.5116168302
1787807636430335986,0.063,,,,1787807636430335986,0.5123861834
1787807636438029518,0.106,,,,1787807636438029518,0.5131555366
1787807636445723050,0.157,,,,1787807636445723050,0.5139248898
1787807636453416582,0.167,,,,1787807636453416582,0.514694243
1787807636461110114,0.188,,,,1787807636461110114,0.5154635962
1787807636468803646,0.211,,,,1787807636468803646,0.5162329494
1787807636476497178,0.221,,,,1787807636476497178,0.5170023026
1787807636484190710,0.228,,,,1787807636484190710,0.5177716558
1787807636491884242,0.246,,,,1787807636491884242,0.518541009
1787807636499577774,0.261,,,,1787807636499577774,0.5193103622
1787807636507271306,0.277,,,,1787807636507271306,0.5200797154
1787807636514964838,0.307,,,,1787807636514964838,0.5208490686
1787807636522658370,0.328,,,,1787807636522658370,0.5216184218
1787807636530351902,0.345,,,,1787807636530351902,0.522387775
1787807636538045434,0.376,,,,1787807636538045434,0.5231571282
1787807636545738966,0.386,,,,1787807636545738966,0.5239264814
1787807636553432498,0.389,,,,1787807636553432498,0.5246958346
1787807636561126030,0.378,,,,1787807636561126030,0.5254651878
1787807636568819562,0.35,,,,1787807636568819562,0.526234541
1787807636576513094,0.32,,,,1787807636576513094,0.5270038942
1787807636584206626,0.282,,,,1787807636584206626,0.5277732474
1787807636591900158,0.241,,,,1787807636591900158,0.5285426006
1787807636599593690,0.188,,,,1787807636599593690,0.5293119538
1787807636607287222,0.114,,,,1787807636607287222,0.530081307
1787807636614980754,0.05,,,,1787807636614980754,0.5308506602
1787807636622674286,-0.005,,,,1787807636622674286,0.5316200134
1787807636630367818,-0.045,,,,1787807636630367818,0.5323893666
1787807636638061350,-0.078,,,,1787807636638061350,0.5331587198
1787807636645754882,-0.111,,,,1787807636645754882,0.533928073
1787807636653448414,-0.124,,,,1787807636653448414,0.5346974262
1787807636661141946,-0.127,,,,1787807636661141946,0.5354667794
1787807636668835478,-0.142,,,,1787807636668835478,0.5362361326
1787807636676529010,-0.139,,,,1787807636676529010,0.5370054858
1787807636684222542,-0.132,,,,1787807636684222542,0.537774839
1787807636691916074,-0.119,,,,1787807636691916074,0.5385441922
1787807636699609606,-0.104,,,,1787807636699609606,0.5393135454
1787807636707303138,-0.099,,,,1787807636707303138,0.5400828986
1787807636714996670,-0.091,,,,1787807636714996670,0.5408522518
1787807636722690202,-0.083,,,,1787807636722690202,0.541621605
1787807636730383734,-0.078,,,,1787807636730383734,0.5423909582
1787807636738077266,-0.063,,,,1787807636738077266,0.5431603114
1787807636745770798,-0.058,,,,1787807636745770798,0.5439296646
1787807636753464330,-0.05,,,,1787807636753464330,0.5446990178
1787807636761157862,-0.038,,,,1787807636761157862,0.545468371
1787807636768851394,-0.035,,,,1787807636768851394,0.5462377242
1787807636776544926,-0.03,,,,1787807636776544926,0.5470070774
1787807636784238458,-0.03,,,,1787807636784238458,0.5477764306
1787807636791931990,-0.03,,,,1787807636791931990,0.5485457838
1787807636799625522,-0.03,,,,1787807636799625522,0.549315137
1787807636807319054,-0.035,,,,1787807636807319054,0.5500844902
1787807636815012586,-0.035,,,,1787807636815012586,0.5508538434
1787807636822706118,-0.04,,703.0,,1787807636822706118,0.5516231966
1787807636830399650,-0.045,,,,1787807636830399650,0.5523925498
1787807636838093182,-0.038,,,,1787807636838093182,0.553161903
1787807636845786714,-0.04,,,,1787807636845786714,0.5539312562
1787807636853480246,-0.045,,,,1787807636853480246,0.5547006094
1787807636861173778,-0.055,,,,1787807636861173778,0.5554699626
1787807636868867310,-0.058,,,,1787807636868867310,0.5562393158
1787807636876560842,-0.048,,,,1787807636876560842,0.557008669
1787807636884254374,-0.038,,,,1787807636884254374,0.5577780222
1787807636891947906,-0.017,,,,1787807636891947906,0.5585473754
1787807636899641438,0.02,,,,1787807636899641438,0.5593167286
1787807636907334970,0.03,,,,1787807636907334970,0.5600860818
1787807636915028502,0.027,,,,1787807636915028502,0.560855435
1787807636922722038,0.027,,,,1787807636922722038,0.5616247886
1787807636930415570,0.007,,,,1787807636930415570,0.5623941418
1787807636938109102,-0.03,,,,1787807636938109102,0.563163495
1787807636945802634,-0.05,,,,1787807636945802634,0.5639328482
1787807636953496166,-0.043,,,,1787807636953496166,0.5647022014
1787807636961189698,-0.038,,,,1787807636961189698,0.5654715546
1787807636968883230,-0.033,,,,1787807636968883230,0.5662409078
1787807636976576762,-0.01,,,,1787807636976576762,0.567010261
1787807636984270294,0.0,,,,1787807636984270294,0.5677796142
1787807636991963826,-0.007,,,,1787807636991963826,0.5685489674
1787807636999657358,-0.022,,,,1787807636999657358,0.5693183206
1787807637007350890,-0.038,,,,1787807637007350890,0.5700876738
1787807637015044422,0.094,,,,1787807637015044422,0.570857027
1787807637022737954,0.6,,,,1787807637022737954,0.5716263802
1787807637030431486,1.233,,,,1787807637030431486,0.5723957334
1787807637038125018,1.042,,,,1787807637038125018,0.5731650866
1787807637045818550,-0.162,,,,1787807637045818550,0.5739344398
1787807637053512082,-0.879,,,,1787807637053512082,0.574703793
1787807637061205614,-0.462,,,,1787807637061205614,0.5754731462
1787807637068899146,-0.091,,,,1787807637068899146,0.5762424994
1787807637076592678,-0.139,,,,1787807637076592678,0.5770118526
1787807637084286210,-0.081,,,,1787807637084286210,0.5777812058
1787807637091979742,0.038,,,,1787807637091979742,0.578550559
1787807637099673274,0.048,,,,1787807637099673274,0.5793199122
1787807637107366806,0.063,,,,1787807637107366806,0.5800892654
1787807637115060338,0.106,,,,1787807637115060338,0.5808586186
1787807637122753870,0.116,,,,1787807637122753870,0.5816279718
1787807637130447402,0.129,,,,1787807637130447402,0.582397325
1787807637138140934,0.155,,,,1787807637138140934,0.5831666782
1787807637145834466,0.167,,,,1787807637145834466,0.5839360314
1787807637153527998,0.183,,,,1787807637153527998,0.5847053846
1787807637161221530,0.2,,,,1787807637161221530,0.5854747378
1787807637168915062,0.211,,,,1787807637168915062,0.586244091
1787807637176608594,0.233,,,,1787807637176608594,0.5870134442
1787807637184302126,0.259,,,,1787807637184302126,0.5877827974
1787807637191995658,0.284,,,,1787807637191995658,0.5885521506
1787807637199689190,0.312,,,,1787807637199689190,0.5893215038
1787807637207382722,0.33,,,,1787807637207382722,0.590090857
1787807637215076254,0.35,,,,1787807637215076254,0.5908602102
1787807637222769786,0.358,,,,1787807637222769786,0.5916295634
1787807637230463318,0.348,,,,1787807637230463318,0.5923989166
1787807637238156850,0.333,,,,1787807637238156850,0.5931682698
1787807637245850382,0.31,,,,1787807637245850382,0.593937623
1787807637253543914,0.277,,,,1787807637253543914,0.5947069762
1787807637261237446,0.244,,,,1787807637261237446,0.5954763294
1787807637268930978,0.19,,,,1787807637268930978,0.5962456826
1787807637276624510,0.122,,,,1787807637276624510,0.5970150358
1787807637284318042,0.055,,,,1787807637284318042,0.597784389
1787807637292011574,0.0,,,,1787807637292011574,0.5985537422
1787807637299705106,-0.045,,,,1787807637299705106,0.5993230954
1787807637307398638,-0.091,,,,1787807637307398638,0.6000924486
1787807637315092170,-0.119,,,,1787807637315092170,0.6008618018
1787807637322785702,-0.134,,,,1787807637322785702,0.601631155
1787807637330479234,-0.144,,,,1787807637330479234,0.6024005082
1787807637338172766,-0.144,,,,1787807637338172766,0.6031698614
1787807637345866298,-0.144,,,,1787807637345866298,0.6039392146
1787807637353559830,-0.142,,,,1787807637353559830,0.6047085678
1787807637361253362,-0.132,,,,1787807637361253362,0.605477921
1787807637368946894,-0.119,,,,1787807637368946894,0.6062472742
1787807637376640426,-0.101,,,,1787807637376640426,0.6070166274
1787807637384333958,-0.096,,,,1787807637384333958,0.6077859806
1787807637392027490,-0.089,,,,1787807637392027490,0.6085553338
1787807637399721022,-0.078,,,,1787807637399721022,0.609324687
1787807637407414554,-0.071,,,,1787807637407414554,0.6100940402
1787807637415108086,-0.068,,,,1787807637415108086,0.6108633934
1787807637422801618,-0.068,,,,1787807637422801618,0.6116327466
1787807637430495150,-0.058,,,,1787807637430495150,0.6124020998
1787807637438188682,-0.05,,,,1787807637438188682,0.613171453
1787807637445882214,-0.053,,,,1787807637445882214,0.6139408062
1787807637453575746,-0.058,,,,1787807637453575746,0.6147101594
1787807637461269278,-0.061,,,,1787807637461269278,0.6154795126
1787807637468962810,-0.061,,,,1787807637468962810,0.6162488658
1787807637476656342,-0.053,,,,1787807637476656342,0.617018219
1787807637484349878,-0.055,83.0,,,1787807637484349878,0.6177875726
1787807637492043410,-0.061,,,,1787807637492043410,0.6185569258
1787807637499736942,-0.058,,,,1787807637499736942,0.619326279
1787807637507430474,-0.058,,,,1787807637507430474,0.6200956322
1787807637515124006,-0.058,,,,1787807637515124006,0.6208649854
1787807637522817538,-0.058,,,,1787807637522817538,0.6216343386
1787807637530511070,-0.053,,711.0,,1787807637530511070,0.6224036918
1787807637538204602,-0.043,,,,1787807637538204602,0.623173045
1787807637545898134,-0.048,,,,1787807637545898134,0.6239423982
1787807637553591666,-0.058,,,,1787807637553591666,0.6247117514
1787807637561285198,-0.05,,,,1787807637561285198,0.6254811046
1787807637568978730,-0.043,,,,1787807637568978730,0.6262504578
1787807637576672262,-0.027,,,,1787807637576672262,0.627019811
1787807637584365794,0.002,,,,1787807637584365794,0.6277891642
1787807637592059326,0.03,,,,1787807637592059326,0.6285585174
1787807637599752858,0.033,,,,1787807637599752858,0.6293278706
1787807637607446390,0.027,,,,1787807637607446390,0.6300972238
1787807637615139922,0.033,,,,1787807637615139922,0.630866577
1787807637622833454,0.007,,,,1787807637622833454,0.6316359302
1787807637630526986,-0.03,,,,1787807637630526986,0.6324052834
1787807637638220518,-0.035,,,,1787807637638220518,0.6331746366
1787807637645914050,-0.027,,,,1787807637645914050,0.6339439898
1787807637653607582,-0.027,,,,1787807637653607582,0.634713343
1787807637661301114,-0.027,,,,1787807637661301114,0.6354826962
1787807637668994646,-0.02,,,,1787807637668994646,0.6362520494
1787807637676688178,-0.01,,,,1787807637676688178,0.6370214026
1787807637684381710,-0.017,,,,1787807637684381710,0.6377907558
1787807637692075242,-0.038,,,,1787807637692075242,0.638560109
1787807637699768774,-0.04,,,,1787807637699768774,0.6393294622
1787807637707462306,0.142,,,,1787807637707462306,0.6400988154
1787807637715155838,0.709,,,,1787807637715155838,0.6408681686
1787807637722849370,1.243,,,,1787807637722849370,0.6416375218
1787807637730542902,0.785,,,,1787807637730542902,0.642406875
1787807637738236434,-0.46,,,,1787807637738236434,0.6431762282
1787807637745929966,-0.933,,,,1787807637745929966,0.6439455814
1787807637753623498,-0.417,,,,1787807637753623498,0.6447149346
1787807637761317030,-0.111,,,,1787807637761317030,0.6454842878
1787807637769010562,-0.142,,,,1787807637769010562,0.646253641
1787807637776704094,-0.033,,,,1787807637776704094,0.6470229942
1787807637784397626,0.073,,,,1787807637784397626,0.6477923474
1787807637792091158,0.081,,,,1787807637792091158,0.6485617006
1787807637799784690,0.114,,,,1787807637799784690,0.6493310538
1787807637807478222,0.147,,,,1787807637807478222,0.650100407
1787807637815171754,0.155,,,,1787807637815171754,0.6508697602
1787807637822865286,0.17,,,,1787807637822865286,0.6516391134
1787807637830558818,0.188,,,,1787807637830558818,0.6524084666
1787807637838252350,0.198,,,,1787807637838252350,0.6531778198
1787807637845945882,0.213,,,,1787807637845945882,0.653947173
1787807637853639414,0.233,,,,1787807637853639414,0.6547165262
1787807637861332946,0.254,,,,1787807637861332946,0.6554858794
1787807637869026478,0.279,,,,1787807637869026478,0.6562552326
1787807637876720010,0.31,,,,1787807637876720010,0.6570245858
1787807637884413542,0.33,,,,1787807637884413542,0.657793939
1787807637892107074,0.35,,,,1787807637892107074,0.6585632922
1787807637899800606,0.371,,,,1787807637899800606,0.6593326454
1787807637907494138,0.378,,,,1787807637907494138,0.6601019986
1787807637915187670,0.381,,,,1787807637915187670,0.6608713518
1787807637922881202,0.373,,,,1787807637922881202,0.661640705
1787807637930574734,0.35,,,,1787807637930574734,0.6624100582
1787807637938268266,0.335,,,,1787807637938268266,0.6631794114
1787807637945961798,0.32,,,,1787807637945961798,0.6639487646
1787807637953655330,0.279,,,,1787807637953655330,0.6647181178
1787807637961348862,0.203,,,,1787807637961348862,0.665487471
1787807637969042394,0.122,,,,1787807637969042394,0.6662568242
1787807637976735926,0.061,,,,1787807637976735926,0.6670261774
1787807637984429458,0.007,,,,1787807637984429458,0.6677955306
1787807637992122990,-0.04,,,,1787807637992122990,0.6685648838
1787807637999816522,-0.081,,,,1787807637999816522,0.669334237
1787807638007510054,-0.116,,,,1787807638007510054,0.6701035902
1787807638015203586,-0.132,,,,1787807638015203586,0.6708729434
1787807638022897118,-0.139,,,,1787807638022897118,0.6716422966
1787807638030590650,-0.139,,,,1787807638030590650,0.6724116498
1787807638038284182,-0.139,,,,1787807638038284182,0.673181003
1787807638045977718,-0.142,,,,1787807638045977718,0.6739503566
1787807638053671250,-0.137,,,,1787807638053671250,0.6747197098
1787807638061364782,-0.122,,,,1787807638061364782,0.675489063
1787807638069058314,-0.106,,,,1787807638069058314,0.6762584162
1787807638076751846,-0.099,,,,1787807638076751846,0.6770277694
1787807638084445378,-0.091,,,,1787807638084445378,0.6777971226
1787807638092138910,-0.081,,,,1787807638092138910,0.6785664758
1787807638099832442,-0.071,,,,1787807638099832442,0.679335829
1787807638107525974,-0.063,,,,1787807638107525974,0.6801051822
1787807638115219506,-0.055,,,,1787807638115219506,0.6808745354
1787807638122913038,-0.053,,,,1787807638122913038,0.6816438886
1787807638130606570,-0.045,,,,1787807638130606570,0.6824132418
1787807638138300102,-0.033,,,,1787807638138300102,0.683182595
1787807638145993634,-0.035,,,,1787807638145993634,0.6839519482
1787807638153687166,-0.04,,,,1787807638153687166,0.6847213014
1787807638161380698,-0.035,,,,1787807638161380698,0.6854906546
1787807638169074230,-0.027,,,,1787807638169074230,0.6862600078
1787807638176767762,-0.022,,,,1787807638176767762,0.687029361
1787807638184461294,-0.03,,,,1787807638184461294,0.6877987142
1787807638192154826,-0.035,,,,1787807638192154826,0.6885680674
1787807638199848358,-0.035,,,,1787807638199848358,0.6893374206
1787807638207541890,-0.038,,,,1787807638207541890,0.6901067738
1787807638215235422,-0.038,,,,1787807638215235422,0.690876127
1787807638222928954,-0.04,,,,1787807638222928954,0.6916454802
1787807638230622486,-0.04,,,,1787807638230622486,0.6924148334
1787807638238316018,-0.035,,,,1787807638238316018,0.6931841866
1787807638246009550,-0.045,,,,1787807638246009550,0.6939535398
1787807638253703082,-0.055,,,,1787807638253703082,0.694722893
1787807638261396614,-0.045,,726.0,,1787807638261396614,0.6954922462
1787807638269090146,-0.033,,,,1787807638269090146,0.6962615994
1787807638276783678,-0.01,,,,1787807638276783678,0.6970309526
1787807638284477210,0.02,,,,1787807638284477210,0.6978003058
1787807638292170742,0.043,,,,1787807638292170742,0.698569659
1787807638299864274,0.045,,,,1787807638299864274,0.6993390122
1787807638307557806,0.045,,,,1787807638307557806,0.7001083654
1787807638315251338,0.035,,,,1787807638315251338,0.7008777186
1787807638322944870,0.002,,,,1787807638322944870,0.7016470718
1787807638330638402,-0.03,,,,1787807638330638402,0.702416425
1787807638338331934,-0.03,,,,1787807638338331934,0.7031857782
1787807638346025466,-0.022,,,,1787807638346025466,0.7039551314
1787807638353718998,-0.017,,,,1787807638353718998,0.7047244846
1787807638361412530,-0.01,,,,1787807638361412530,0.7054938378
1787807638369106062,-0.01,,,,1787807638369106062,0.706263191
1787807638376799594,-0.007,,,,1787807638376799594,0.7070325442
1787807638384493126,-0.015,,,,1787807638384493126,0.7078018974
1787807638392186658,-0.027,,,,1787807638392186658,0.7085712506
1787807638399880190,-0.012,,,,1787807638399880190,0.7093406038
1787807638407573722,0.221,,,,1787807638407573722,0.710109957
1787807638415267254,0.811,,,,1787807638415267254,0.7108793102
1787807638422960786,1.225,,,,1787807638422960786,0.7116486634
1787807638430654318,0.5640000000000001,,,,1787807638430654318,0.7124180166
1787807638438347850,-0.663,,,,1787807638438347850,0.7131873698
1787807638446041382,-0.905,,,,1787807638446041382,0.713956723
1787807638453734914,-0.33,,,,1787807638453734914,0.7147260762
1787807638461428446,-0.119,,,,1787807638461428446,0.7154954294
1787807638469121978,-0.162,,,,1787807638469121978,0.7162647826
1787807638476815510,-0.03,,,,1787807638476815510,0.7170341358
1787807638484509042,0.055,,,,1787807638484509042,0.717803489
1787807638492202574,0.048,,,,1787807638492202574,0.7185728422
1787807638499896106,0.091,,,,1787807638499896106,0.7193421954
1787807638507589638,0.134,,,,1787807638507589638,0.7201115486
1787807638515283170,0.142,,,,1787807638515283170,0.7208809018
1787807638522976702,0.155,,,,1787807638522976702,0.721650255
1787807638530670234,0.175,,,,1787807638530670234,0.7224196082
1787807638538363766,0.193,,,,1787807638538363766,0.7231889614
1787807638546057298,0.208,,,,1787807638546057298,0.7239583146
1787807638553750830,0.231,,,,1787807638553750830,0.7247276678
1787807638561444362,0.256,,,,1787807638561444362,0.725497021
1787807638569137894,0.277,,,,1787807638569137894,0.7262663742
1787807638576831426,0.302,,,,1787807638576831426,0.7270357274
1787807638584524958,0.325,,,,1787807638584524958,0.7278050806
1787807638592218490,0.348,,,,1787807638592218490,0.7285744338
1787807638599912022,0.371,,,,1787807638599912022,0.729343787
1787807638607605558,0.384,83.0,,,1787807638607605558,0.7301131406
1787807638615299090,0.391,,,,1787807638615299090,0.7308824938
1787807638622992622,0.391,,,,1787807638622992622,0.731651847
1787807638630686154,0.368,,,,1787807638630686154,0.7324212002
1787807638638379686,0.33,,,,1787807638638379686,0.7331905534
1787807638646073218,0.305,,,,1787807638646073218,0.7339599066
1787807638653766750,0.292,,,,1787807638653766750,0.7347292598
1787807638661460282,0.251,,,,1787807638661460282,0.735498613
1787807638669153814,0.167,,,,1787807638669153814,0.7362679662
1787807638676847346,0.094,,,,1787807638676847346,0.7370373194
1787807638684540878,0.04,,,,1787807638684540878,0.7378066726
1787807638692234410,-0.007,,,,1787807638692234410,0.7385760258
1787807638699927942,-0.061,,,,1787807638699927942,0.739345379
1787807638707621474,-0.104,,,,1787807638707621474,0.7401147322
1787807638715315006,-0.101,,,,1787807638715315006,0.7408840854
1787807638723008538,-0.096,,,,1787807638723008538,0.7416534386
1787807638730702070,-0.116,,,,1787807638730702070,0.7424227918
1787807638738395602,-0.119,,,,1787807638738395602,0.743192145
1787807638746089134,-0.104,,,,1787807638746089134,0.7439614982
1787807638753782666,-0.096,,,,1787807638753782666,0.7447308514
1787807638761476198,-0.089,,,,1787807638761476198,0.7455002046
1787807638769169730,-0.071,,,,1787807638769169730,0.7462695578
1787807638776863262,-0.045,,,,1787807638776863262,0.747038911
1787807638784556794,-0.033,,,,1787807638784556794,0.7478082642
1787807638792250326,-0.03,,,,1787807638792250326,0.7485776174
1787807638799943858,-0.027,,,,1787807638799943858,0.7493469706
1787807638807637390,-0.035,,,,1787807638807637390,0.7501163238
1787807638815330922,-0.035,,,,1787807638815330922,0.750885677
1787807638823024454,-0.03,,,,1787807638823024454,0.7516550302
1787807638830717986,-0.022,,,,1787807638830717986,0.7524243834
1787807638838411518,-0.015,,,,1787807638838411518,0.7531937366
1787807638846105050,-0.017,,,,1787807638846105050,0.7539630898
1787807638853798582,-0.02,,,,1787807638853798582,0.754732443
1787807638861492114,-0.012,,,,1787807638861492114,0.7555017962
1787807638869185646,-0.012,,,,1787807638869185646,0.7562711494
1787807638876879178,-0.015,,,,1787807638876879178,0.7570405026
1787807638884572710,-0.017,,,,1787807638884572710,0.7578098558
1787807638892266242,-0.017,,,,1787807638892266242,0.758579209
1787807638899959774,-0.02,,,,1787807638899959774,0.7593485622
1787807638907653306,-0.03,,,,1787807638907653306,0.7601179154
1787807638915346838,-0.025,,,,1787807638915346838,0.7608872686
1787807638923040370,-0.022,,,,1787807638923040370,0.7616566218
1787807638930733902,-0.033,,,,1787807638930733902,0.762425975
1787807638938427434,-0.022,,,,1787807638938427434,0.7631953282
1787807638946120966,-0.005,,,,1787807638946120966,0.7639646814
1787807638953814498,-0.015,,,,1787807638953814498,0.7647340346
1787807638961508030,-0.027,,,,1787807638961508030,0.7655033878
1787807638969201562,-0.022,,711.0,,1787807638969201562,0.766272741
1787807638976895094,-0.015,,,,1787807638976895094,0.7670420942
1787807638984588626,-0.005,,,,1787807638984588626,0.7678114474
1787807638992282158,0.043,,,,1787807638992282158,0.7685808006
1787807638999975690,0.078,,,,1787807638999975690,0.7693501538
1787807639007669222,0.055,,,,1787807639007669222,0.770119507
1787807639015362754,0.05,,,,1787807639015362754,0.7708888602
1787807639023056286,0.055,,,,1787807639023056286,0.7716582134
1787807639030749818,0.015,,,,1787807639030749818,0.7724275666
1787807639038443350,-0.035,,,,1787807639038443350,0.7731969198
1787807639046136882,-0.048,,,,1787807639046136882,0.773966273
1787807639053830414,-0.03,,,,1787807639053830414,0.7747356262
1787807639061523946,-0.012,,,,1787807639061523946,0.7755049794
1787807639069217478,0.0,,,,1787807639069217478,0.7762743326
1787807639076911010,0.012,,,,1787807639076911010,0.7770436858
1787807639084604542,0.015,,,,1787807639084604542,0.777813039
1787807639092298074,0.025,,,,1787807639092298074,0.7785823922
1787807639099991606,0.012,,,,1787807639099991606,0.7793517454
1787807639107685138,-0.002,,,,1787807639107685138,0.7801210986
1787807639115378670,0.246,,,,1787807639115378670,0.7808904518
1787807639123072202,0.869,,,,1787807639123072202,0.781659805
1787807639130765734,1.192,,,,1787807639130765734,0.7824291582
1787807639138459266,0.386,,,,1787807639138459266,0.7831985114
1787807639146152798,-0.8180000000000001,,,,1787807639146152798,0.7839678646
1787807639153846330,-0.907,,,,1787807639153846330,0.7847372178
1787807639161539862,-0.31,,,,1787807639161539862,0.785506571
1787807639169233400,-0.175,84.0,,,1787807639169233400,0.7862759248
1787807639176926932,-0.178,,,,1787807639176926932,0.787045278
1787807639184620464,0.005,,,,1787807639184620464,0.7878146312
1787807639192313996,0.063,,,,1787807639192313996,0.7885839844
1787807639200007528,0.053,,,,1787807639200007528,0.7893533376
1787807639207701060,0.111,,,,1787807639207701060,0.7901226908
1787807639215394592,0.147,,,,1787807639215394592,0.790892044
1787807639223088124,0.139,,,,1787807639223088124,0.7916613972
1787807639230781656,0.165,,,,1787807639230781656,0.7924307504
1787807639238475188,0.193,,,,1787807639238475188,0.7932001036
1787807639246168720,0.2,,,,1787807639246168720,0.7939694568
1787807639253862252,0.241,,,,1787807639253862252,0.79473881
1787807639261555784,0.277,,,,1787807639261555784,0.7955081632
1787807639269249316,0.287,,,,1787807639269249316,0.7962775164
1787807639276942848,0.305,,,,1787807639276942848,0.7970468696
1787807639284636380,0.333,,,,1787807639284636380,0.7978162228
1787807639292329912,0.353,,,,1787807639292329912,0.798585576
1787807639300023444,0.376,,,,1787807639300023444,0.7993549292
1787807639307716976,0.391,,,,1787807639307716976,0.8001242824
1787807639315410508,0.406,,,,1787807639315410508,0.8008936356
1787807639323104040,0.419,,,,1787807639323104040,0.8016629888
1787807639330797572,0.406,,,,1787807639330797572,0.802432342
1787807639338491104,0.381,,,,1787807639338491104,0.8032016952
1787807639346184636,0.348,,,,1787807639346184636,0.8039710484
1787807639353878168,0.325,,,,1787807639353878168,0.8047404016
1787807639361571700,0.295,,,,1787807639361571700,0.8055097548
1787807639369265232,0.226,,,,1787807639369265232,0.806279108
1787807639376958764,0.157,,,,1787807639376958764,0.8070484612
1787807639384652296,0.101,,,,1787807639384652296,0.8078178144
1787807639392345828,0.048,,,,1787807639392345828,0.8085871676
1787807639400039360,-0.005,,,,1787807639400039360,0.8093565208
1787807639407732892,-0.053,,,,1787807639407732892,0.810125874
1787807639415426424,-0.078,,,,1787807639415426424,0.8108952272
1787807639423119956,-0.101,,,,1787807639423119956,0.8116645804
1787807639430813488,-0.111,,,,1787807639430813488,0.8124339336
1787807639438507020,-0.094,,,,1787807639438507020,0.8132032868
1787807639446200552,-0.086,,,,1787807639446200552,0.81397264
1787807639453894084,-0.094,,,,1787807639453894084,0.8147419932
1787807639461587616,-0.089,,,,1787807639461587616,0.8155113464
1787807639469281148,-0.078,,,,1787807639469281148,0.8162806996
1787807639476974680,-0.066,,,,1787807639476974680,0.8170500528
1787807639484668212,-0.05,,,,1787807639484668212,0.817819406
1787807639492361744,-0.043,,,,1787807639492361744,0.8185887592
1787807639500055276,-0.043,,,,1787807639500055276,0.8193581124
1787807639507748808,-0.058,,,,1787807639507748808,0.8201274656
1787807639515442340,-0.063,,,,1787807639515442340,0.8208968188
1787807639523135872,-0.048,,,,1787807639523135872,0.821666172
1787807639530829404,-0.035,,,,1787807639530829404,0.8224355252
1787807639538522936,-0.035,,,,1787807639538522936,0.8232048784
1787807639546216468,-0.033,,,,1787807639546216468,0.8239742316
1787807639553910000,-0.015,,,,1787807639553910000,0.8247435848
1787807639561603532,-0.012,,,,1787807639561603532,0.825512938
1787807639569297064,-0.043,,,,1787807639569297064,0.8262822912
1787807639576990596,-0.053,,,,1787807639576990596,0.8270516444
1787807639584684128,-0.05,,,,1787807639584684128,0.8278209976
1787807639592377660,-0.045,,,,1787807639592377660,0.8285903508
1787807639600071192,-0.033,,,,1787807639600071192,0.829359704
1787807639607764724,-0.027,,,,1787807639607764724,0.8301290572
1787807639615458256,-0.03,,,,1787807639615458256,0.8308984104
1787807639623151788,-0.038,,,,1787807639623151788,0.8316677636
1787807639630845320,-0.045,,,,1787807639630845320,0.8324371168
1787807639638538852,-0.035,,,,1787807639638538852,0.83320647
1787807639646232384,-0.03,,,,1787807639646232384,0.8339758232
1787807639653925916,-0.035,,,,1787807639653925916,0.8347451764
1787807639661619448,-0.045,,,,1787807639661619448,0.8355145296
1787807639669312980,-0.058,,,,1787807639669312980,0.8362838828
1787807639677006512,-0.053,,,,1787807639677006512,0.837053236
1787807639684700044,-0.03,,714.0,,1787807639684700044,0.8378225892
1787807639692393576,0.012,,,,1787807639692393576,0.8385919424
1787807639700087108,0.05,,,,1787807639700087108,0.8393612956
1787807639707780640,0.045,,,,1787807639707780640,0.8401306488
1787807639715474172,0.03,,,,1787807639715474172,0.840900002
1787807639723167704,0.022,,,,1787807639723167704,0.8416693552
1787807639730861240,-0.005,,,,1787807639730861240,0.8424387088
1787807639738554772,-0.033,,,,1787807639738554772,0.843208062
1787807639746248304,-0.038,,,,1787807639746248304,0.8439774152
1787807639753941836,-0.027,,,,1787807639753941836,0.8447467684
1787807639761635368,-0.025,,,,1787807639761635368,0.8455161216
1787807639769328900,-0.035,,,,1787807639769328900,0.8462854748
1787807639777022432,-0.022,,,,1787807639777022432,0.847054828
1787807639784715964,0.005,,,,1787807639784715964,0.8478241812
1787807639792409496,-0.007,,,,1787807639792409496,0.8485935344
1787807639800103028,-0.033,,,,1787807639800103028,0.8493628876
1787807639807796560,0.027,,,,1787807639807796560,0.8501322408
1787807639815490092,0.376,,,,1787807639815490092,0.850901594
1787807639823183624,1.001,,,,1787807639823183624,0.8516709472
1787807639830877156,1.159,,,,1787807639830877156,0.8524403004
1787807639838570688,0.18,,,,1787807639838570688,0.8532096536
1787807639846264220,-0.864,,,,1787807639846264220,0.8539790068
1787807639853957752,-0.704,,,,1787807639853957752,0.85474836
1787807639861651284,-0.17,,,,1787807639861651284,0.8555177132
1787807639869344816,-0.119,,,,1787807639869344816,0.8562870664
1787807639877038348,-0.096,,,,1787807639877038348,0.8570564196
1787807639884731880,0.043,,,,1787807639884731880,0.8578257728
1787807639892425412,0.081,,,,1787807639892425412,0.858595126
1787807639900118944,0.096,,,,1787807639900118944,0.8593644792
1787807639907812476,0.137,,,,1787807639907812476,0.8601338324
1787807639915506008,0.157,,,,1787807639915506008,0.8609031856
1787807639923199540,0.167,,,,1787807639923199540,0.8616725388
1787807639930893072,0.183,,,,1787807639930893072,0.862441892
1787807639938586604,0.195,,,,1787807639938586604,0.8632112452
1787807639946280136,0.205,,,,1787807639946280136,0.8639805984
1787807639953973668,0.231,,,,1787807639953973668,0.8647499516
1787807639961667200,0.256,,,,1787807639961667200,0.8655193048
1787807639969360732,0.267,,,,1787807639969360732,0.866288658
1787807639977054264,0.292,,,,1787807639977054264,0.8670580112
1787807639984747796,0.317,,,,1787807639984747796,0.8678273644
1787807639992441328,0.333,,,,1787807639992441328,0.8685967176
1787807640000134860,0.361,,,,1787807640000134860,0.8693660708
1787807640007828392,0.386,,,,1787807640007828392,0.870135424
1787807640015521924,0.389,,,,1787807640015521924,0.8709047772
1787807640023215456,0.386,,,,1787807640023215456,0.8716741304
1787807640030908988,0.376,,,,1787807640030908988,0.8724434836
1787807640038602520,0.356,,,,1787807640038602520,0.8732128368
1787807640046296052,0.32,,,,1787807640046296052,0.87398219
1787807640053989584,0.284,,,,1787807640053989584,0.8747515432
1787807640061683116,0.249,,,,1787807640061683116,0.8755208964
1787807640069376648,0.188,,,,1787807640069376648,0.8762902496
1787807640077070180,0.122,,,,1787807640077070180,0.8770596028
1787807640084763712,0.061,,,,1787807640084763712,0.877828956
1787807640092457244,-0.002,,,,1787807640092457244,0.8785983092
1787807640100150776,-0.045,,,,1787807640100150776,0.8793676624
1787807640107844308,-0.078,,,,1787807640107844308,0.8801370156
1787807640115537840,-0.106,,,,1787807640115537840,0.8809063688
1787807640123231372,-0.122,,,,1787807640123231372,0.881675722
1787807640130924904,-0.134,,,,1787807640130924904,0.8824450752
1787807640138618436,-0.139,,,,1787807640138618436,0.8832144284
1787807640146311968,-0.134,,,,1787807640146311968,0.8839837816
1787807640154005500,-0.122,,,,1787807640154005500,0.8847531348
1787807640161699032,-0.114,,,,1787807640161699032,0.885522488
1787807640169392564,-0.111,,,,1787807640169392564,0.8862918412
1787807640177086096,-0.094,,,,1787807640177086096,0.8870611944
1787807640184779628,-0.081,,,,1787807640184779628,0.8878305476
1787807640192473160,-0.073,,,,1787807640192473160,0.8885999008
1787807640200166692,-0.053,,,,1787807640200166692,0.889369254
1787807640207860224,-0.058,,,,1787807640207860224,0.8901386072
1787807640215553756,-0.076,,,,1787807640215553756,0.8909079604
1787807640223247288,-0.063,,,,1787807640223247288,0.8916773136
1787807640230940820,-0.053,,,,1787807640230940820,0.8924466668
1787807640238634352,-0.05,,,,1787807640238634352,0.89321602
1787807640246327884,-0.05,,,,1787807640246327884,0.8939853732
1787807640254021416,-0.048,,,,1787807640254021416,0.8947547264
1787807640261714948,-0.045,,,,1787807640261714948,0.8955240796
1787807640269408480,-0.045,,,,1787807640269408480,0.8962934328
1787807640277102012,-0.045,,,,1787807640277102012,0.897062786
1787807640284795544,-0.048,,,,1787807640284795544,0.8978321392
1787807640292489080,-0.038,84.0,,,1787807640292489080,0.8986014928
1787807640300182751,-0.022,,,,1787807640300182751,0.8993708599
1787807640307876422,-0.033,,,,1787807640307876422,0.900140227
1787807640315570093,-0.043,,,,1787807640315570093,0.9009095941
1787807640323263764,-0.033,,,,1787807640323263764,0.9016789612
1787807640330957435,-0.015,,,,1787807640330957435,0.9024483283
1787807640338651106,-0.002,,,,1787807640338651106,0.9032176954
1787807640346344777,-0.005,,,,1787807640346344777,0.9039870625
1787807640354038448,-0.01,,,,1787807640354038448,0.9047564296
1787807640361732119,-0.01,,,,1787807640361732119,0.9055257967
1787807640369425790,-0.015,,,,1787807640369425790,0.9062951638
1787807640377119461,-0.01,,,,1787807640377119461,0.9070645309
1787807640384813132,-0.007,,,,1787807640384813132,0.907833898
1787807640392506803,-0.015,,,,1787807640392506803,0.9086032651
1787807640400200474,-0.007,,,,1787807640400200474,0.9093726322
1787807640407894145,0.015,,,,1787807640407894145,0.9101419993
1787807640415587816,0.048,,,,1787807640415587816,0.9109113664
1787807640423281487,0.063,,741.0,,1787807640423281487,0.9116807335
1787807640430975158,0.061,,,,1787807640430975158,0.9124501006
1787807640438668829,0.055,,,,1787807640438668829,0.9132194677
1787807640446362500,0.017,,,,1787807640446362500,0.9139888348
1787807640454056171,-0.025,,,,1787807640454056171,0.9147582019
1787807640461749842,-0.027,,,,1787807640461749842,0.915527569
1787807640469443513,-0.017,,,,1787807640469443513,0.9162969361
1787807640477137184,-0.015,,,,1787807640477137184,0.9170663032
1787807640484830855,-0.007,,,,1787807640484830855,0.9178356703
1787807640492524526,0.007,,,,1787807640492524526,0.9186050374
1787807640500218197,0.012,,,,1787807640500218197,0.9193744045
1787807640507911868,0.007,,,,1787807640507911868,0.9201437716
1787807640515605539,-0.002,,,,1787807640515605539,0.9209131387
1787807640523299210,0.01,,,,1787807640523299210,0.9216825058
1787807640530992881,0.211,,,,1787807640530992881,0.9224518729
1787807640538686552,0.773,,,,1787807640538686552,0.92322124
1787807640546380223,1.241,,,,1787807640546380223,0.9239906071
1787807640554073894,0.653,,,,1787807640554073894,0.9247599742
1787807640561767565,-0.63,,,,1787807640561767565,0.9255293413
1787807640569461236,-0.943,,,,1787807640569461236,0.9262987084
1787807640577154907,-0.31,,,,1787807640577154907,0.9270680755
1787807640584848578,-0.086,,,,1787807640584848578,0.9278374426
1787807640592542249,-0.155,,,,1787807640592542249,0.9286068097
1787807640600235920,0.007,,,,1787807640600235920,0.9293761768
1787807640607929591,0.104,,,,1787807640607929591,0.9301455439
1787807640615623262,0.086,,,,1787807640615623262,0.930914911
1787807640623316933,0.142,,,,1787807640623316933,0.9316842781
1787807640631010604,0.178,,,,1787807640631010604,0.9324536452
1787807640638704275,0.157,,,,1787807640638704275,0.9332230123
1787807640646397946,0.165,,,,1787807640646397946,0.9339923794
1787807640654091617,0.213,,,,1787807640654091617,0.9347617465
1787807640661785288,0.226,,,,1787807640661785288,0.9355311136
1787807640669478959,0.216,,,,1787807640669478959,0.9363004807
1787807640677172630,0.241,,,,1787807640677172630,0.9370698478
1787807640684866301,0.267,,,,1787807640684866301,0.9378392149
1787807640692559972,0.279,,,,1787807640692559972,0.938608582
1787807640700253643,0.31,,,,1787807640700253643,0.9393779491
1787807640707947314,0.338,,,,1787807640707947314,0.9401473162
1787807640715640985,0.348,,,,1787807640715640985,0.9409166833
1787807640723334656,0.366,,,,1787807640723334656,0.9416860504
1787807640731028327,0.378,,,,1787807640731028327,0.9424554175
1787807640738721998,0.384,,,,1787807640738721998,0.9432247846
1787807640746415669,0.384,,,,1787807640746415669,0.9439941517
1787807640754109340,0.389,,,,1787807640754109340,0.9447635188
1787807640761803011,0.384,,,,1787807640761803011,0.9455328859
1787807640769496682,0.34,,,,1787807640769496682,0.946302253
1787807640777190353,0.279,,,,1787807640777190353,0.9470716201
1787807640784884024,0.218,,,,1787807640784884024,0.9478409872
1787807640792577695,0.16,,,,1787807640792577695,0.9486103543
1787807640800271366,0.104,,,,1787807640800271366,0.9493797214
1787807640807965037,0.038,,,,1787807640807965037,0.9501490885
1787807640815658708,-0.012,,,,1787807640815658708,0.9509184556
1787807640823352379,-0.045,,,,1787807640823352379,0.9516878227
1787807640831046050,-0.089,,,,1787807640831046050,0.9524571898
1787807640838739721,-0.124,,,,1787807640838739721,0.9532265569
1787807640846433392,-0.124,,,,1787807640846433392,0.953995924
1787807640854127094,-0.106,,,,1787807640854127094,0.9547652942
1787807640861820556,-0.101,,,,1787807640861820556,0.9555346404
1787807640869514018,-0.111,,,,1787807640869514018,0.9563039866
1787807640877207480,-0.109,,,,1787807640877207480,0.9570733328
1787807640884900942,-0.094,,,,1787807640884900942,0.957842679
1787807640892594404,-0.086,,,,1787807640892594404,0.9586120252
1787807640900287866,-0.076,,,,1787807640900287866,0.9593813714
1787807640907981328,-0.076,,,,1787807640907981328,0.9601507176
1787807640915674790,-0.063,,,,1787807640915674790,0.9609200638
1787807640923368252,-0.045,,,,1787807640923368252,0.96168941
1787807640931061714,-0.038,,,,1787807640931061714,0.9624587562
1787807640938755176,-0.035,,,,1787807640938755176,0.9632281024
1787807640946448638,-0.053,,,,1787807640946448638,0.9639974486
1787807640954142100,-0.063,,,,1787807640954142100,0.9647667948
1787807640961835562,-0.043,,,,1787807640961835562,0.965536141
1787807640969529024,-0.035,,,,1787807640969529024,0.9663054872
1787807640977222486,-0.043,,,,1787807640977222486,0.9670748334
1787807640984915948,-0.045,,,,1787807640984915948,0.9678441796
1787807640992609410,-0.045,,,,1787807640992609410,0.9686135258
1787807641000302872,-0.045,,,,1787807641000302872,0.969382872
1787807641007996334,-0.043,,,,1787807641007996334,0.9701522182
1787807641015689796,-0.055,,,,1787807641015689796,0.9709215644
1787807641023383258,-0.076,,,,1787807641023383258,0.9716909106
1787807641031076720,-0.073,,,,1787807641031076720,0.9724602568
1787807641038770182,-0.055,,,,1787807641038770182,0.973229603
1787807641046463644,-0.055,,,,1787807641046463644,0.9739989492
1787807641054157106,-0.061,,,,1787807641054157106,0.9747682954
1787807641061850568,-0.055,,,,1787807641061850568,0.9755376416
1787807641069544030,-0.048,,,,1787807641069544030,0.9763069878
1787807641077237492,-0.038,,,,1787807641077237492,0.977076334
1787807641084930954,-0.017,,,,1787807641084930954,0.9778456802
1787807641092624416,0.005,,,,1787807641092624416,0.9786150264
1787807641100317878,0.012,,,,1787807641100317878,0.9793843726
1787807641108011340,0.005,,,,1787807641108011340,0.9801537188
1787807641115704802,0.01,,,,1787807641115704802,0.980923065
1787807641123398264,0.01,,,,1787807641123398264,0.9816924112
1787807641131091726,-0.015,,,,1787807641131091726,0.9824617574
1787807641138785188,-0.035,,,,1787807641138785188,0.9832311036
1787807641146478650,-0.035,,,,1787807641146478650,0.9840004498
1787807641154172112,-0.027,,731.0,,1787807641154172112,0.984769796
1787807641161865574,-0.02,,,,1787807641161865574,0.9855391422
1787807641169559036,-0.027,,,,1787807641169559036,0.9863084884
1787807641177252498,-0.033,,,,1787807641177252498,0.9870778346
1787807641184945960,-0.022,,,,1787807641184945960,0.9878471808
1787807641192639422,-0.007,,,,1787807641192639422,0.988616527
1787807641200332884,-0.02,,,,1787807641200332884,0.9893858732
1787807641208026346,-0.03,,,,1787807641208026346,0.9901552194
1787807641215719808,0.132,,,,1787807641215719808,0.9909245656
1787807641223413270,0.671,,,,1787807641223413270,0.9916939118
1787807641231106732,1.261,,,,1787807641231106732,0.992463258
1787807641238800194,0.912,,,,1787807641238800194,0.9932326042
1787807641246493656,-0.384,,,,1787807641246493656,0.9940019504
1787807641254187118,-0.963,,,,1787807641254187118,0.9947712966
1787807641261880580,-0.422,,,,1787807641261880580,0.9955406428
1787807641269574042,-0.116,,,,1787807641269574042,0.996309989
1787807641277267504,-0.19,,,,1787807641277267504,0.9970793352
1787807641284960966,-0.061,,,,1787807641284960966,0.9978486814
1787807641292654428,0.061,,,,1787807641292654428,0.9986180276
1787807641300347890,0.045,,,,1787807641300347890,0.9993873738
1787807641308041352,0.091,,,,1787807641308041352,1.00015672
1787807641315734814,0.165,,,,1787807641315734814,1.0009260662
1787807641323428276,0.18,,,,1787807641323428276,1.0016954124
1787807641331121738,0.188,,,,1787807641331121738,1.0024647586
1787807641338815200,0.208,,,,1787807641338815200,1.0032341048
1787807641346508662,0.205,,,,1787807641346508662,1.004003451
1787807641354202124,0.205,,,,1787807641354202124,1.0047727972
1787807641361895586,0.226,,,,1787807641361895586,1.0055421434
1787807641369589048,0.249,,,,1787807641369589048,1.0063114896
1787807641377282510,0.272,,,,1787807641377282510,1.0070808358
1787807641384975972,0.289,,,,1787807641384975972,1.007850182
1787807641392669434,0.315,,,,1787807641392669434,1.0086195282
1787807641400362896,0.353,,,,1787807641400362896,1.0093888744
1787807641408056358,0.371,,,,1787807641408056358,1.0101582206
1787807641415749848,0.381,85.0,,,1787807641415749848,1.0109275696
1787807641423443310,0.406,,,,1787807641423443310,1.0116969158
1787807641431136772,0.417,,,,1787807641431136772,1.012466262
1787807641438830234,0.411,,,,1787807641438830234,1.0132356082
1787807641446523696,0.401,,,,1787807641446523696,1.0140049544
1787807641454217158,0.373,,,,1787807641454217158,1.0147743006
1787807641461910620,0.32,,,,1787807641461910620,1.0155436468
1787807641469604082,0.244,,,,1787807641469604082,1.016312993
1787807641477297544,0.129,,,,1787807641477297544,1.0170823392
1787807641484991006,0.033,,,,1787807641484991006,1.0178516854
1787807641492684468,0.0,,,,1787807641492684468,1.0186210316
1787807641500377930,-0.022,,,,1787807641500377930,1.0193903778
1787807641508071392,-0.068,,,,1787807641508071392,1.020159724
1787807641515764854,-0.099,,,,1787807641515764854,1.0209290702
1787807641523458316,-0.104,,,,1787807641523458316,1.0216984164
1787807641531151778,-0.122,,,,1787807641531151778,1.0224677626
1787807641538845240,-0.142,,,,1787807641538845240,1.0232371088
1787807641546538702,-0.144,,,,1787807641546538702,1.024006455
1787807641554232164,-0.129,,,,1787807641554232164,1.0247758012
1787807641561925626,-0.096,,,,1787807641561925626,1.0255451474
1787807641569619088,-0.076,,,,1787807641569619088,1.0263144936
1787807641577312550,-0.081,,,,1787807641577312550,1.0270838398
1787807641585006012,-0.099,,,,1787807641585006012,1.027853186
1787807641592699474,-0.099,,,,1787807641592699474,1.0286225322
1787807641600392936,-0.076,,,,1787807641600392936,1.0293918784
1787807641608086398,-0.066,,,,1787807641608086398,1.0301612246
1787807641615779860,-0.078,,,,1787807641615779860,1.0309305708
1787807641623473322,-0.083,,,,1787807641623473322,1.031699917
1787807641631166784,-0.055,,,,1787807641631166784,1.0324692632
1787807641638860246,-0.01,,,,1787807641638860246,1.0332386094
1787807641646553708,-0.02,,,,1787807641646553708,1.0340079556
1787807641654247170,-0.061,,,,1787807641654247170,1.0347773018
1787807641661940632,-0.045,,,,1787807641661940632,1.035546648
1787807641669634094,-0.012,,,,1787807641669634094,1.0363159942
1787807641677327556,-0.025,,,,1787807641677327556,1.0370853404
1787807641685021018,-0.048,,,,1787807641685021018,1.0378546866
1787807641692714480,-0.038,,,,1787807641692714480,1.0386240328
1787807641700407942,-0.015,,,,1787807641700407942,1.039393379
1787807641708101404,-0.02,,,,1787807641708101404,1.0401627252
1787807641715794866,-0.043,,,,1787807641715794866,1.0409320714
1787807641723488328,-0.078,,,,1787807641723488328,1.0417014176
1787807641731181790,-0.073,,,,1787807641731181790,1.0424707638
1787807641738875252,-0.027,,,,1787807641738875252,1.04324011
1787807641746568714,-0.03,,,,1787807641746568714,1.0440094562
1787807641754262176,-0.063,,,,1787807641754262176,1.0447788024
1787807641761955638,-0.048,,,,1787807641761955638,1.0455481486
1787807641769649100,-0.025,,,,1787807641769649100,1.0463174948
1787807641777342562,-0.017,,,,1787807641777342562,1.047086841
1787807641785036024,0.015,,,,1787807641785036024,1.0478561872
1787807641792729486,0.03,,,,1787807641792729486,1.0486255334
1787807641800422948,0.01,,,,1787807641800422948,1.0493948796
1787807641808116410,0.025,,,,1787807641808116410,1.0501642258
1787807641815809872,0.053,,,,1787807641815809872,1.050933572
1787807641823503334,0.025,,,,1787807641823503334,1.0517029182
1787807641831196796,-0.012,,,,1787807641831196796,1.0524722644
1787807641838890258,-0.005,,,,1787807641838890258,1.0532416106
1787807641846583720,0.01,,,,1787807641846583720,1.0540109568
1787807641854277182,0.0,,,,1787807641854277182,1.054780303
1787807641861970644,-0.02,,,,1787807641861970644,1.0555496492
1787807641869664106,-0.02,,710.0,,1787807641869664106,1.0563189954
1787807641877357568,0.002,,,,1787807641877357568,1.0570883416
1787807641885051030,0.02,,,,1787807641885051030,1.0578576878
1787807641892744492,0.017,,,,1787807641892744492,1.058627034
1787807641900437954,0.017,,,,1787807641900437954,1.0593963802
1787807641908131416,0.18,,,,1787807641908131416,1.0601657264
1787807641915824878,0.74,,,,1787807641915824878,1.0609350726
1787807641923518340,1.322,,,,1787807641923518340,1.0617044188
1787807641931211802,0.867,,,,1787807641931211802,1.062473765
1787807641938905264,-0.488,,,,1787807641938905264,1.0632431112
1787807641946598726,-0.963,,,,1787807641946598726,1.0640124574
1787807641954292188,-0.361,,,,1787807641954292188,1.0647818036
1787807641961985650,-0.096,,,,1787807641961985650,1.0655511498
1787807641969679112,-0.188,,,,1787807641969679112,1.066320496
1787807641977372602,-0.033,,,,1787807641977372602,1.067089845
1787807641985066134,0.101,,,,1787807641985066134,1.0678591982
1787807641992759666,0.068,,,,1787807641992759666,1.0686285514
1787807642000453198,0.081,,,,1787807642000453198,1.0693979046
1787807642008146730,0.155,,,,1787807642008146730,1.0701672578
1787807642015840262,0.193,,,,1787807642015840262,1.070936611
1787807642023533794,0.2,,,,1787807642023533794,1.0717059642
1787807642031227326,0.208,,,,1787807642031227326,1.0724753174
1787807642038920858,0.216,,,,1787807642038920858,1.0732446706
1787807642046614390,0.246,,,,1787807642046614390,1.0740140238
1787807642054307922,0.307,,,,1787807642054307922,1.074783377
1787807642062001454,0.315,,,,1787807642062001454,1.0755527302
1787807642069694986,0.267,,,,1787807642069694986,1.0763220834
1787807642077388518,0.264,,,,1787807642077388518,1.0770914366
1787807642085082050,0.348,,,,1787807642085082050,1.0778607898
1787807642092775582,0.411,,,,1787807642092775582,1.078630143
1787807642100469114,0.411,,,,1787807642100469114,1.0793994962
1787807642108162646,0.434,,,,1787807642108162646,1.0801688494
1787807642115856178,0.46,,,,1787807642115856178,1.0809382026
1787807642123549710,0.439,,,,1787807642123549710,1.0817075558
1787807642131243242,0.419,,,,1787807642131243242,1.082476909
1787807642138936774,0.409,,,,1787807642138936774,1.0832462622
1787807642146630306,0.378,,,,1787807642146630306,1.0840156154
1787807642154323838,0.333,,,,1787807642154323838,1.0847849686
1787807642162017370,0.269,,,,1787807642162017370,1.0855543218
1787807642169710902,0.178,,,,1787807642169710902,1.086323675
1787807642177404434,0.091,,,,1787807642177404434,1.0870930282
1787807642185097966,0.03,,,,1787807642185097966,1.0878623814
1787807642192791498,-0.033,,,,1787807642192791498,1.0886317346
1787807642200485030,-0.076,,,,1787807642200485030,1.0894010878
1787807642208178562,-0.094,,,,1787807642208178562,1.090170441
1787807642215872094,-0.114,,,,1787807642215872094,1.0909397942
1787807642223565626,-0.137,,,,1787807642223565626,1.0917091474
1787807642231259158,-0.142,,,,1787807642231259158,1.0924785006
1787807642238952690,-0.139,,,,1787807642238952690,1.0932478538
1787807642246646222,-0.134,,,,1787807642246646222,1.094017207
1787807642254339754,-0.116,,,,1787807642254339754,1.0947865602
1787807642262033286,-0.101,,,,1787807642262033286,1.0955559134
1787807642269726818,-0.104,,,,1787807642269726818,1.0963252666
1787807642277420350,-0.101,,,,1787807642277420350,1.0970946198
1787807642285113882,-0.096,,,,1787807642285113882,1.097863973
1787807642292807414,-0.091,,,,1787807642292807414,1.0986333262
1787807642300500946,-0.05,,,,1787807642300500946,1.0994026794
1787807642308194478,-0.007,,,,1787807642308194478,1.1001720326
1787807642315888010,-0.005,,,,1787807642315888010,1.1009413858
1787807642323581542,-0.03,,,,1787807642323581542,1.101710739
1787807642331275074,-0.04,,,,1787807642331275074,1.1024800922
1787807642338968606,-0.017,,,,1787807642338968606,1.1032494454
1787807642346662138,0.0,,,,1787807642346662138,1.1040187986
1787807642354355670,-0.012,,,,1787807642354355670,1.1047881518
1787807642362049202,-0.045,,,,1787807642362049202,1.105557505
1787807642369742734,-0.053,,,,1787807642369742734,1.1063268582
1787807642377436266,-0.012,,,,1787807642377436266,1.1070962114
1787807642385129798,0.017,,,,1787807642385129798,1.1078655646
1787807642392823330,-0.02,,,,1787807642392823330,1.1086349178
1787807642400516862,-0.045,,,,1787807642400516862,1.109404271
1787807642408210394,-0.027,,,,1787807642408210394,1.1101736242
1787807642415903926,-0.015,,,,1787807642415903926,1.1109429774
1787807642423597458,-0.022,,,,1787807642423597458,1.1117123306
1787807642431290990,-0.027,,,,1787807642431290990,1.1124816838
1787807642438984522,-0.033,,,,1787807642438984522,1.113251037
1787807642446678054,-0.04,,,,1787807642446678054,1.1140203902
1787807642454371586,-0.038,,,,1787807642454371586,1.1147897434
1787807642462065118,-0.03,,,,1787807642462065118,1.1155590966
1787807642469758650,-0.017,,,,1787807642469758650,1.1163284498
1787807642477452182,0.002,,,,1787807642477452182,1.117097803
1787807642485145714,0.033,,,,1787807642485145714,1.1178671562
1787807642492839246,0.048,,,,1787807642492839246,1.1186365094
1787807642500532778,0.04,,,,1787807642500532778,1.1194058626
1787807642508226310,0.05,,,,1787807642508226310,1.1201752158
1787807642515919842,0.053,,,,1787807642515919842,1.120944569
1787807642523613374,0.012,,,,1787807642523613374,1.1217139222
1787807642531306906,-0.025,,,,1787807642531306906,1.1224832754
1787807642539000442,-0.033,85.0,,,1787807642539000442,1.123252629
1787807642546693974,-0.022,,,,1787807642546693974,1.1240219822
1787807642554387506,-0.012,,,,1787807642554387506,1.1247913354
1787807642562081038,-0.005,,,,1787807642562081038,1.1255606886
1787807642569774570,0.002,,,,1787807642569774570,1.1263300418
1787807642577468102,0.007,,,,1787807642577468102,1.127099395
1787807642585161634,-0.002,,,,1787807642585161634,1.1278687482
1787807642592855166,-0.022,,,,1787807642592855166,1.1286381014
1787807642600548698,-0.022,,731.0,,1787807642600548698,1.1294074546
1787807642608242230,0.096,,,,1787807642608242230,1.1301768078
1787807642615935762,0.554,,,,1787807642615935762,1.130946161
1787807642623629294,1.238,,,,1787807642623629294,1.1317155142
1787807642631322826,1.169,,,,1787807642631322826,1.1324848674
1787807642639016358,-0.089,,,,1787807642639016358,1.1332542206
1787807642646709890,-0.971,,,,1787807642646709890,1.1340235738
1787807642654403422,-0.541,,,,1787807642654403422,1.134792927
1787807642662096954,-0.114,,,,1787807642662096954,1.1355622802
1787807642669790486,-0.195,,,,1787807642669790486,1.1363316334
1787807642677484018,-0.109,,,,1787807642677484018,1.1371009866
1787807642685177550,0.055,,,,1787807642685177550,1.1378703398
1787807642692871082,0.043,,,,1787807642692871082,1.138639693
1787807642700564614,0.058,,,,1787807642700564614,1.1394090462
1787807642708258146,0.142,,,,1787807642708258146,1.1401783994
1787807642715951678,0.152,,,,1787807642715951678,1.1409477526
1787807642723645210,0.144,,,,1787807642723645210,1.1417171058
1787807642731338742,0.175,,,,1787807642731338742,1.142486459
1787807642739032274,0.185,,,,1787807642739032274,1.1432558122
1787807642746725806,0.183,,,,1787807642746725806,1.1440251654
1787807642754419338,0.208,,,,1787807642754419338,1.1447945186
1787807642762112870,0.251,,,,1787807642762112870,1.1455638718
1787807642769806402,0.274,,,,1787807642769806402,1.146333225
1787807642777499934,0.287,,,,1787807642777499934,1.1471025782
1787807642785193466,0.32,,,,1787807642785193466,1.1478719314
1787807642792886998,0.358,,,,1787807642792886998,1.1486412846
1787807642800580530,0.386,,,,1787807642800580530,1.1494106378
1787807642808274062,0.414,,,,1787807642808274062,1.150179991
1787807642815967594,0.432,,,,1787807642815967594,1.1509493442
1787807642823661126,0.437,,,,1787807642823661126,1.1517186974
1787807642831354658,0.434,,,,1787807642831354658,1.1524880506
1787807642839048190,0.406,,,,1787807642839048190,1.1532574038
1787807642846741722,0.361,,,,1787807642846741722,1.154026757
1787807642854435254,0.33,,,,1787807642854435254,1.1547961102
1787807642862128786,0.279,,,,1787807642862128786,1.1555654634
1787807642869822318,0.195,,,,1787807642869822318,1.1563348166
1787807642877515850,0.119,,,,1787807642877515850,1.1571041698
1787807642885209382,0.038,,,,1787807642885209382,1.157873523
1787807642892902914,-0.03,,,,1787807642892902914,1.1586428762
1787807642900596446,-0.076,,,,1787807642900596446,1.1594122294
1787807642908289978,-0.119,,,,1787807642908289978,1.1601815826
1787807642915983510,-0.127,,,,1787807642915983510,1.1609509358
1787807642923677042,-0.122,,,,1787807642923677042,1.161720289
1787807642931370574,-0.147,,,,1787807642931370574,1.1624896422
1787807642939064106,-0.16,,,,1787807642939064106,1.1632589954
1787807642946757638,-0.157,,,,1787807642946757638,1.1640283486
1787807642954451170,-0.157,,,,1787807642954451170,1.1647977018
1787807642962144702,-0.15,,,,1787807642962144702,1.165567055
1787807642969838234,-0.144,,,,1787807642969838234,1.1663364082
1787807642977531766,-0.137,,,,1787807642977531766,1.1671057614
1787807642985225298,-0.089,,,,1787807642985225298,1.1678751146
1787807642992918830,-0.043,,,,1787807642992918830,1.1686444678
1787807643000612362,-0.05,,,,1787807643000612362,1.169413821
1787807643008305894,-0.061,,,,1787807643008305894,1.1701831742
1787807643015999426,-0.068,,,,1787807643015999426,1.1709525274
1787807643023692958,-0.089,,,,1787807643023692958,1.1717218806
1787807643031386490,-0.114,,,,1787807643031386490,1.1724912338
1787807643039080022,-0.137,,,,1787807643039080022,1.173260587
1787807643046773554,-0.101,,,,1787807643046773554,1.1740299402
1787807643054467086,-0.01,,,,1787807643054467086,1.1747992934
1787807643062160618,0.005,,,,1787807643062160618,1.1755686466
1787807643069854150,-0.058,,,,1787807643069854150,1.1763379998
1787807643077547682,-0.061,,,,1787807643077547682,1.177107353
1787807643085241214,-0.005,,,,1787807643085241214,1.1778767062
1787807643092934746,-0.005,,,,1787807643092934746,1.1786460594
1787807643100628282,-0.05,,,,1787807643100628282,1.179415413
1787807643108322023,-0.073,,,,1787807643108322023,1.1801847871
1787807643116015764,-0.089,,,,1787807643116015764,1.1809541612
1787807643123709505,-0.076,,,,1787807643123709505,1.1817235353
1787807643131403246,-0.01,,,,1787807643131403246,1.1824929094
1787807643139096987,0.022,,,,1787807643139096987,1.1832622835
1787807643146790728,-0.007,,,,1787807643146790728,1.1840316576
1787807643154484469,-0.04,,,,1787807643154484469,1.1848010317
1787807643162178210,-0.045,,,,1787807643162178210,1.1855704058
1787807643169871951,-0.022,,,,1787807643169871951,1.1863397799
1787807643177565692,0.007,,,,1787807643177565692,1.187109154
1787807643185259433,-0.015,,,,1787807643185259433,1.1878785281
1787807643192953174,-0.061,,,,1787807643192953174,1.1886479022
1787807643200646915,-0.025,,,,1787807643200646915,1.1894172763
1787807643208340656,0.015,,,,1787807643208340656,1.1901866504
1787807643216034397,-0.007,,,,1787807643216034397,1.1909560245
1787807643223728138,0.015,,,,1787807643223728138,1.1917253986
1787807643231421879,0.053,,,,1787807643231421879,1.1924947727
1787807643239115620,0.061,,,,1787807643239115620,1.1932641468
1787807643246809361,0.068,,,,1787807643246809361,1.1940335209
1787807643254503102,0.058,,,,1787807643254503102,1.194802895
1787807643262196843,0.04,,,,1787807643262196843,1.1955722691
1787807643269890584,0.045,,,,1787807643269890584,1.1963416432
1787807643277584325,0.038,,,,1787807643277584325,1.1971110173
1787807643285278066,-0.025,,,,1787807643285278066,1.1978803914
1787807643292971807,-0.035,,,,1787807643292971807,1.1986497655
1787807643300665548,0.04,,,,1787807643300665548,1.1994191396
1787807643308359289,0.061,,,,1787807643308359289,1.2001885137
1787807643316053030,0.017,,,,1787807643316053030,1.2009578878
1787807643323746771,-0.017,,,,1787807643323746771,1.2017272619
1787807643331440512,0.03,,,,1787807643331440512,1.202496636
1787807643339134253,0.137,,738.0,,1787807643339134253,1.2032660101
1787807643346827994,0.078,,,,1787807643346827994,1.2040353842
1787807643354521735,0.015,,,,1787807643354521735,1.2048047583
1787807643362215476,0.373,,,,1787807643362215476,1.2055741324
1787807643369909217,1.035,,,,1787807643369909217,1.2063435065
1787807643377602958,1.263,,,,1787807643377602958,1.2071128806
1787807643385296699,0.33,,,,1787807643385296699,1.2078822547
1787807643392990440,-0.841,,,,1787807643392990440,1.2086516288
1787807643400684181,-0.722,,,,1787807643400684181,1.2094210029
1787807643408377922,-0.147,,,,1787807643408377922,1.210190377
1787807643416071663,-0.2,,,,1787807643416071663,1.2109597511
1787807643423765404,-0.183,,,,1787807643423765404,1.2117291252
1787807643431459145,0.076,,,,1787807643431459145,1.2124984993
1787807643439152886,0.068,,,,1787807643439152886,1.2132678734
1787807643446846627,-0.012,,,,1787807643446846627,1.2140372475
1787807643454540368,0.078,,,,1787807643454540368,1.2148066216
1787807643462234109,0.19,,,,1787807643462234109,1.2155759957
1787807643469927850,0.208,,,,1787807643469927850,1.2163453698
1787807643477621591,0.218,,,,1787807643477621591,1.2171147439
1787807643485315332,0.269,,,,1787807643485315332,1.217884118
1787807643493009073,0.256,,,,1787807643493009073,1.2186534921
1787807643500702814,0.198,,,,1787807643500702814,1.2194228662
1787807643508396555,0.167,,,,1787807643508396555,1.2201922403
1787807643516090296,0.205,,,,1787807643516090296,1.2209616144
1787807643523784037,0.317,,,,1787807643523784037,1.2217309885
1787807643531477778,0.366,,,,1787807643531477778,1.2225003626
1787807643539171519,0.34,,,,1787807643539171519,1.2232697367
1787807643546865260,0.363,,,,1787807643546865260,1.2240391108
1787807643554559001,0.406,,,,1787807643554559001,1.2248084849
1787807643562252742,0.404,,,,1787807643562252742,1.225577859
1787807643569946483,0.434,,,,1787807643569946483,1.2263472331
1787807643577640224,0.46,,,,1787807643577640224,1.2271166072
1787807643585333965,0.381,,,,1787807643585333965,1.2278859813
1787807643593027706,0.322,,,,1787807643593027706,1.2286553554
1787807643600721447,0.356,,,,1787807643600721447,1.2294247295
1787807643608415188,0.305,,,,1787807643608415188,1.2301941036
1787807643616108929,0.205,,,,1787807643616108929,1.2309634777
1787807643623802670,0.18,,,,1787807643623802670,1.2317328518
1787807643631496411,0.162,,,,1787807643631496411,1.2325022259
1787807643639190152,0.058,,,,1787807643639190152,1.2332716
1787807643646883893,-0.071,,,,1787807643646883893,1.2340409741
1787807643654577634,-0.132,,,,1787807643654577634,1.2348103482
1787807643662271382,-0.157,85.0,,,1787807643662271382,1.235579723
1787807643669964844,-0.2,,,,1787807643669964844,1.2363490692
1787807643677658306,-0.221,,,,1787807643677658306,1.2371184154
1787807643685351768,-0.178,,,,1787807643685351768,1.2378877616
1787807643693045230,-0.18,,,,1787807643693045230,1.2386571078
1787807643700738692,-0.213,,,,1787807643700738692,1.239426454
1787807643708432154,-0.129,,,,1787807643708432154,1.2401958002
1787807643716125616,-0.045,,,,1787807643716125616,1.2409651464
1787807643723819078,-0.155,,,,1787807643723819078,1.2417344926
1787807643731512540,-0.228,,,,1787807643731512540,1.2425038388
1787807643739206002,-0.091,,,,1787807643739206002,1.243273185
1787807643746899464,-0.022,,,,1787807643746899464,1.2440425312
1787807643754592926,-0.109,,,,1787807643754592926,1.2448118774
1787807643762286388,-0.109,,,,1787807643762286388,1.2455812236
1787807643769979850,-0.076,,,,1787807643769979850,1.2463505698
1787807643777673312,-0.122,,,,1787807643777673312,1.247119916
1787807643785366774,-0.091,,,,1787807643785366774,1.2478892622
1787807643793060236,-0.012,,,,1787807643793060236,1.2486586084
1787807643800753698,-0.02,,,,1787807643800753698,1.2494279546
1787807643808447160,-0.045,,,,1787807643808447160,1.2501973008
1787807643816140622,-0.063,,,,1787807643816140622,1.250966647
1787807643823834084,-0.083,,,,1787807643823834084,1.2517359932
1787807643831527546,-0.05,,,,1787807643831527546,1.2525053394
1787807643839221008,-0.015,,,,1787807643839221008,1.2532746856
1787807643846914470,-0.04,,,,1787807643846914470,1.2540440318
1787807643854607932,-0.061,,,,1787807643854607932,1.254813378
1787807643862301394,-0.03,,,,1787807643862301394,1.2555827242
1787807643869994856,-0.017,,,,1787807643869994856,1.2563520704
1787807643877688318,-0.035,,,,1787807643877688318,1.2571214166
1787807643885381780,-0.05,,,,1787807643885381780,1.2578907628
1787807643893075242,-0.068,,,,1787807643893075242,1.258660109
1787807643900768704,-0.063,,,,1787807643900768704,1.2594294552
1787807643908462166,-0.033,,,,1787807643908462166,1.2601988014
1787807643916155628,-0.055,,,,1787807643916155628,1.2609681476
1787807643923849090,-0.081,,,,1787807643923849090,1.2617374938
1787807643931542552,-0.061,,,,1787807643931542552,1.26250684
1787807643939236014,-0.027,,,,1787807643939236014,1.2632761862
1787807643946929476,0.045,,,,1787807643946929476,1.2640455324
1787807643954622938,0.073,,,,1787807643954622938,1.2648148786
1787807643962316400,0.007,,,,1787807643962316400,1.2655842248
1787807643970009862,-0.015,,,,1787807643970009862,1.266353571
1787807643977703324,0.03,,,,1787807643977703324,1.2671229172
1787807643985396786,0.015,,,,1787807643985396786,1.2678922634
1787807643993090248,-0.033,,,,1787807643993090248,1.2686616096
1787807644000783710,-0.035,,,,1787807644000783710,1.2694309558
1787807644008477172,-0.055,,,,1787807644008477172,1.270200302
1787807644016170634,-0.073,,,,1787807644016170634,1.2709696482
1787807644023864096,0.0,,,,1787807644023864096,1.2717389944
1787807644031557558,0.043,,,,1787807644031557558,1.2725083406
1787807644039251020,-0.043,,,,1787807644039251020,1.2732776868
1787807644046944482,-0.091,,,,1787807644046944482,1.274047033
1787807644054637944,-0.033,,,,1787807644054637944,1.2748163792
1787807644062331406,0.005,,,,1787807644062331406,1.2755857254
1787807644070024868,0.045,,,,1787807644070024868,1.2763550716
1787807644077718330,0.363,,743.0,,1787807644077718330,1.2771244178
1787807644085411792,1.073,,,,1787807644085411792,1.277893764
1787807644093105254,1.375,,,,1787807644093105254,1.2786631102
1787807644100798716,0.353,,,,1787807644100798716,1.2794324564
1787807644108492178,-0.839,,,,1787807644108492178,1.2802018026
1787807644116185640,-0.684,,,,1787807644116185640,1.2809711488
1787807644123879102,-0.165,,,,1787807644123879102,1.281740495
1787807644131572564,-0.18,,,,1787807644131572564,1.2825098412
1787807644139266026,-0.109,,,,1787807644139266026,1.2832791874
1787807644146959488,0.007,,,,1787807644146959488,1.2840485336
1787807644154652950,-0.03,,,,1787807644154652950,1.2848178798
1787807644162346412,0.058,,,,1787807644162346412,1.285587226
1787807644170039874,0.147,,,,1787807644170039874,1.2863565722
1787807644177733336,0.096,,,,1787807644177733336,1.2871259184
1787807644185426798,0.083,,,,1787807644185426798,1.2878952646
1787807644193120260,0.142,,,,1787807644193120260,1.2886646108
1787807644200813722,0.167,,,,1787807644200813722,1.289433957
1787807644208507184,0.155,,,,1787807644208507184,1.2902033032
1787807644216200646,0.18,,,,1787807644216200646,1.2909726494
1787807644223894136,0.226,85.0,,,1787807644223894136,1.2917419984
1787807644231587598,0.226,,,,1787807644231587598,1.2925113446
1787807644239281060,0.233,,,,1787807644239281060,1.2932806908
1787807644246974522,0.284,,,,1787807644246974522,1.294050037
1787807644254667984,0.345,,,,1787807644254667984,1.2948193832
1787807644262361446,0.368,,,,1787807644262361446,1.2955887294
1787807644270054908,0.35,,,,1787807644270054908,1.2963580756
1787807644277748370,0.371,,,,1787807644277748370,1.2971274218
1787807644285441832,0.439,,,,1787807644285441832,1.297896768
1787807644293135294,0.455,,,,1787807644293135294,1.2986661142
1787807644300828756,0.419,,,,1787807644300828756,1.2994354604
1787807644308522218,0.376,,,,1787807644308522218,1.3002048066
1787807644316215680,0.328,,,,1787807644316215680,1.3009741528
1787807644323909142,0.3,,,,1787807644323909142,1.301743499
1787807644331602604,0.241,,,,1787807644331602604,1.3025128452
1787807644339296066,0.18,,,,1787807644339296066,1.3032821914
1787807644346989528,0.147,,,,1787807644346989528,1.3040515376
1787807644354682990,0.038,,,,1787807644354682990,1.3048208838
1787807644362376452,-0.073,,,,1787807644362376452,1.30559023
1787807644370069914,-0.066,,,,1787807644370069914,1.3063595762
1787807644377763376,-0.086,,,,1787807644377763376,1.3071289224
1787807644385456838,-0.185,,,,1787807644385456838,1.3078982686
1787807644393150300,-0.185,,,,1787807644393150300,1.3086676148
1787807644400843762,-0.116,,,,1787807644400843762,1.309436961
1787807644408537224,-0.157,,,,1787807644408537224,1.3102063072
1787807644416230686,-0.205,,,,1787807644416230686,1.3109756534
1787807644423924148,-0.114,,,,1787807644423924148,1.3117449996
1787807644431617610,-0.078,,,,1787807644431617610,1.3125143458
1787807644439311072,-0.152,,,,1787807644439311072,1.313283692
1787807644447004534,-0.134,,,,1787807644447004534,1.3140530382
1787807644454697996,-0.045,,,,1787807644454697996,1.3148223844
1787807644462391458,-0.043,,,,1787807644462391458,1.3155917306
1787807644470084920,-0.101,,,,1787807644470084920,1.3163610768
1787807644477778382,-0.116,,,,1787807644477778382,1.317130423
1787807644485471844,-0.096,,,,1787807644485471844,1.3178997692
1787807644493165306,-0.104,,,,1787807644493165306,1.3186691154
1787807644500858768,-0.094,,,,1787807644500858768,1.3194384616
1787807644508552230,-0.017,,,,1787807644508552230,1.3202078078
1787807644516245692,0.007,,,,1787807644516245692,1.320977154
1787807644523939154,-0.055,,,,1787807644523939154,1.3217465002
1787807644531632616,-0.068,,,,1787807644531632616,1.3225158464
1787807644539326078,-0.03,,,,1787807644539326078,1.3232851926
1787807644547019540,-0.017,,,,1787807644547019540,1.3240545388
1787807644554713002,-0.02,,,,1787807644554713002,1.324823885
1787807644562406464,-0.035,,,,1787807644562406464,1.3255932312
1787807644570099926,-0.045,,,,1787807644570099926,1.3263625774
1787807644577793388,-0.025,,,,1787807644577793388,1.3271319236
1787807644585486850,-0.053,,,,1787807644585486850,1.3279012698
1787807644593180312,-0.086,,,,1787807644593180312,1.328670616
1787807644600873774,-0.038,,,,1787807644600873774,1.3294399622
1787807644608567236,-0.02,,,,1787807644608567236,1.3302093084
1787807644616260698,-0.058,,,,1787807644616260698,1.3309786546
1787807644623954160,-0.05,,,,1787807644623954160,1.3317480008
1787807644631647622,-0.015,,,,1787807644631647622,1.332517347
1787807644639341084,0.01,,,,1787807644639341084,1.3332866932
1787807644647034546,-0.033,,,,1787807644647034546,1.3340560394
1787807644654728008,-0.099,,,,1787807644654728008,1.3348253856
1787807644662421470,-0.017,,,,1787807644662421470,1.3355947318
1787807644670114932,0.076,,,,1787807644670114932,1.336364078
1787807644677808394,0.048,,,,1787807644677808394,1.3371334242
1787807644685501856,0.083,,,,1787807644685501856,1.3379027704
1787807644693195318,0.139,,,,1787807644693195318,1.3386721166
1787807644700888780,0.022,,,,1787807644700888780,1.3394414628
1787807644708582242,-0.109,,,,1787807644708582242,1.340210809
1787807644716275704,-0.071,,,,1787807644716275704,1.3409801552
1787807644723969166,0.0,,,,1787807644723969166,1.3417495014
1787807644731662628,0.005,,,,1787807644731662628,1.3425188476
1787807644739356090,0.012,,,,1787807644739356090,1.3432881938
1787807644747049552,0.043,,,,1787807644747049552,1.34405754
1787807644754743014,0.043,,,,1787807644754743014,1.3448268862
1787807644762436476,0.043,,,,1787807644762436476,1.3455962324
1787807644770129938,0.114,,,,1787807644770129938,1.3463655786
1787807644777823400,0.078,,,,1787807644777823400,1.3471349248
1787807644785516890,-0.076,,,,1787807644785516890,1.3479042738
1787807644793210352,0.063,,,,1787807644793210352,1.34867362
1787807644800903814,0.684,,725.0,,1787807644800903814,1.3494429662
1787807644808597276,1.314,,,,1787807644808597276,1.3502123124
1787807644816290738,0.958,,,,1787807644816290738,1.3509816586
1787807644823984200,-0.297,,,,1787807644823984200,1.3517510048
1787807644831677662,-0.757,,,,1787807644831677662,1.352520351
1787807644839371124,-0.221,,,,1787807644839371124,1.3532896972
1787807644847064586,-0.05,,,,1787807644847064586,1.3540590434
1787807644854758048,-0.155,,,,1787807644854758048,1.3548283896
1787807644862451510,-0.03,,,,1787807644862451510,1.3555977358
1787807644870144972,-0.043,,,,1787807644870144972,1.356367082
1787807644877838434,-0.081,,,,1787807644877838434,1.3571364282
1787807644885531896,0.17,,,,1787807644885531896,1.3579057744
1787807644893225358,0.345,,,,1787807644893225358,1.3586751206
1787807644900918820,0.267,,,,1787807644900918820,1.3594444668
1787807644908612282,0.205,,,,1787807644908612282,1.360213813
1787807644916305744,0.221,,,,1787807644916305744,1.3609831592
1787807644923999206,0.223,,,,1787807644923999206,1.3617525054
1787807644931692668,0.193,,,,1787807644931692668,1.3625218516
1787807644939386130,0.152,,,,1787807644939386130,1.3632911978
1787807644947079592,0.134,,,,1787807644947079592,1.364060544
1787807644954773054,0.256,,,,1787807644954773054,1.3648298902
1787807644962466516,0.455,,,,1787807644962466516,1.3655992364
1787807644970159978,0.386,,,,1787807644970159978,1.3663685826
1787807644977853440,0.233,,,,1787807644977853440,1.3671379288
1787807644985546902,0.32,,,,1787807644985546902,1.367907275
1787807644993240364,0.45,,,,1787807644993240364,1.3686766212
1787807645000933826,0.478,,,,1787807645000933826,1.3694459674
1787807645008627288,0.442,,,,1787807645008627288,1.3702153136
1787807645016320750,0.386,,,,1787807645016320750,1.3709846598
1787807645024014212,0.406,,,,1787807645024014212,1.371754006
1787807645031707674,0.465,,,,1787807645031707674,1.3725233522
1787807645039401136,0.437,,,,1787807645039401136,1.3732926984
1787807645047094598,0.353,,,,1787807645047094598,1.3740620446
1787807645054788060,0.251,,,,1787807645054788060,1.3748313908
1787807645062481522,0.099,,,,1787807645062481522,1.375600737
1787807645070174984,0.03,,,,1787807645070174984,1.3763700832
1787807645077868446,0.03,,,,1787807645077868446,1.3771394294
1787807645085561908,-0.063,,,,1787807645085561908,1.3779087756
1787807645093255370,-0.162,,,,1787807645093255370,1.3786781218
1787807645100948832,-0.167,,,,1787807645100948832,1.379447468
1787807645108642294,-0.144,,,,1787807645108642294,1.3802168142
1787807645116335756,-0.15,,,,1787807645116335756,1.3809861604
1787807645124029218,-0.139,,,,1787807645124029218,1.3817555066
1787807645131722680,-0.111,,,,1787807645131722680,1.3825248528
1787807645139416142,-0.134,,,,1787807645139416142,1.383294199
1787807645147109604,-0.124,,,,1787807645147109604,1.3840635452
1787807645154803066,-0.043,,,,1787807645154803066,1.3848328914
1787807645162496528,-0.055,,,,1787807645162496528,1.3856022376
1787807645170189990,-0.137,,,,1787807645170189990,1.3863715838
1787807645177883452,-0.109,,,,1787807645177883452,1.38714093
1787807645185576914,-0.048,,,,1787807645185576914,1.3879102762
1787807645193270376,-0.058,,,,1787807645193270376,1.3886796224
1787807645200963838,-0.076,,,,1787807645200963838,1.3894489686
1787807645208657300,-0.03,,,,1787807645208657300,1.3902183148
1787807645216350762,-0.015,,,,1787807645216350762,1.390987661
1787807645224044224,-0.078,,,,1787807645224044224,1.3917570072
1787807645231737686,-0.129,,,,1787807645231737686,1.3925263534
1787807645239431148,-0.114,,,,1787807645239431148,1.3932956996
1787807645247124610,-0.061,,,,1787807645247124610,1.3940650458
1787807645254818072,-0.017,,,,1787807645254818072,1.394834392
1787807645262511534,-0.017,,,,1787807645262511534,1.3956037382
1787807645270204996,-0.01,,,,1787807645270204996,1.3963730844
1787807645277898458,0.027,,,,1787807645277898458,1.3971424306
1787807645285591920,0.015,,,,1787807645285591920,1.3979117768
1787807645293285382,-0.033,,,,1787807645293285382,1.398681123
1787807645300978844,-0.035,,,,1787807645300978844,1.3994504692
1787807645308672306,-0.04,,,,1787807645308672306,1.4002198154
1787807645316365768,-0.083,,,,1787807645316365768,1.4009891616
1787807645324059230,-0.104,,,,1787807645324059230,1.4017585078
1787807645331752692,-0.055,,,,1787807645331752692,1.402527854
1787807645339446154,-0.012,,,,1787807645339446154,1.4032972002
1787807645347139644,-0.048,85.0,,,1787807645347139644,1.4040665492
1787807645354833524,-0.053,,,,1787807645354833524,1.4048359372
1787807645362527404,0.022,,,,1787807645362527404,1.4056053252
1787807645370221284,0.073,,,,1787807645370221284,1.4063747132
1787807645377915164,0.076,,,,1787807645377915164,1.4071441012
1787807645385609044,0.063,,,,1787807645385609044,1.4079134892
1787807645393302924,0.025,,,,1787807645393302924,1.4086828772
1787807645400996804,0.015,,,,1787807645400996804,1.4094522652
1787807645408690684,0.04,,,,1787807645408690684,1.4102216532
1787807645416384564,0.015,,,,1787807645416384564,1.4109910412
1787807645424078444,-0.043,,,,1787807645424078444,1.4117604292
1787807645431772324,-0.038,,,,1787807645431772324,1.4125298172
1787807645439466204,0.002,,,,1787807645439466204,1.4132992052
1787807645447160084,0.017,,,,1787807645447160084,1.4140685932
1787807645454853964,0.007,,,,1787807645454853964,1.4148379812
1787807645462547844,0.002,,,,1787807645462547844,1.4156073692
1787807645470241724,0.02,,,,1787807645470241724,1.4163767572
1787807645477935604,0.015,,,,1787807645477935604,1.4171461452
1787807645485629484,-0.03,,,,1787807645485629484,1.4179155332
1787807645493323364,-0.005,,,,1787807645493323364,1.4186849212
1787807645501017244,0.363,,,,1787807645501017244,1.4194543092
1787807645508711124,1.113,,,,1787807645508711124,1.4202236972
1787807645516405004,1.472,,,,1787807645516405004,1.4209930852
1787807645524098884,0.521,,724.0,,1787807645524098884,1.4217624732
1787807645531792764,-0.755,,,,1787807645531792764,1.4225318612
1787807645539486644,-0.712,,,,1787807645539486644,1.4233012492
1787807645547180524,-0.137,,,,1787807645547180524,1.4240706372
1787807645554874404,-0.175,,,,1787807645554874404,1.4248400252
1787807645562568284,-0.211,,,,1787807645562568284,1.4256094132
1787807645570262164,0.017,,,,1787807645570262164,1.4263788012
1787807645577956044,0.048,,,,1787807645577956044,1.4271481892
1787807645585649924,0.002,,,,1787807645585649924,1.4279175772
1787807645593343804,0.089,,,,1787807645593343804,1.4286869652
1787807645601037684,0.124,,,,1787807645601037684,1.4294563532
1787807645608731564,0.111,,,,1787807645608731564,1.4302257412
1787807645616425444,0.157,,,,1787807645616425444,1.4309951292
1787807645624119324,0.175,,,,1787807645624119324,1.4317645172
1787807645631813204,0.142,,,,1787807645631813204,1.4325339052
1787807645639507084,0.17,,,,1787807645639507084,1.4333032932
1787807645647200964,0.233,,,,1787807645647200964,1.4340726812
1787807645654894844,0.233,,,,1787807645654894844,1.4348420692
1787807645662588724,0.233,,,,1787807645662588724,1.4356114572
1787807645670282604,0.284,,,,1787807645670282604,1.4363808452
1787807645677976484,0.328,,,,1787807645677976484,1.4371502332
1787807645685670364,0.368,,,,1787807645685670364,1.4379196212
1787807645693364244,0.419,,,,1787807645693364244,1.4386890092
1787807645701058124,0.437,,,,1787807645701058124,1.4394583972
1787807645708752004,0.429,,,,1787807645708752004,1.4402277852
1787807645716445884,0.417,,,,1787807645716445884,1.4409971732
1787807645724139764,0.394,,,,1787807645724139764,1.4417665612
1787807645731833644,0.368,,,,1787807645731833644,1.4425359492
1787807645739527524,0.338,,,,1787807645739527524,1.4433053372
1787807645747221404,0.272,,,,1787807645747221404,1.4440747252
1787807645754915284,0.185,,,,1787807645754915284,1.4448441132
1787807645762609164,0.114,,,,1787807645762609164,1.4456135012
1787807645770303044,0.073,,,,1787807645770303044,1.4463828892
1787807645777996924,0.027,,,,1787807645777996924,1.4471522772
1787807645785690804,-0.048,,,,1787807645785690804,1.4479216652
1787807645793384684,-0.111,,,,1787807645793384684,1.4486910532
1787807645801078564,-0.139,,,,1787807645801078564,1.4494604412
1787807645808772444,-0.17,,,,1787807645808772444,1.4502298292
1787807645816466324,-0.2,,,,1787807645816466324,1.4509992172
1787807645824160204,-0.195,,,,1787807645824160204,1.4517686052
1787807645831854084,-0.178,,,,1787807645831854084,1.4525379932
1787807645839547964,-0.16,,,,1787807645839547964,1.4533073812
1787807645847241844,-0.137,,,,1787807645847241844,1.4540767692
1787807645854935724,-0.119,,,,1787807645854935724,1.4548461572
1787807645862629604,-0.127,,,,1787807645862629604,1.4556155452
1787807645870323484,-0.119,,,,1787807645870323484,1.4563849332
1787807645878017364,-0.071,,,,1787807645878017364,1.4571543212
1787807645885711244,-0.058,,,,1787807645885711244,1.4579237092
1787807645893405124,-0.089,,,,1787807645893405124,1.4586930972
1787807645901099004,-0.096,,,,1787807645901099004,1.4594624852
1787807645908792916,-0.086,,,,1787807645908792916,1.4602318764
1787807645916486378,-0.048,,,,1787807645916486378,1.4610012226
1787807645924179840,-0.025,,,,1787807645924179840,1.4617705688
1787807645931873302,-0.068,,,,1787807645931873302,1.462539915
1787807645939566764,-0.086,,,,1787807645939566764,1.4633092612
1787807645947260226,-0.04,,,,1787807645947260226,1.4640786074
1787807645954953688,-0.025,,,,1787807645954953688,1.4648479536
1787807645962647150,-0.045,,,,1787807645962647150,1.4656172998
1787807645970340612,-0.048,,,,1787807645970340612,1.466386646
1787807645978034074,-0.043,,,,1787807645978034074,1.4671559922
1787807645985727536,-0.04,,,,1787807645985727536,1.4679253384
1787807645993420998,-0.022,,,,1787807645993420998,1.4686946846
1787807646001114460,-0.025,,,,1787807646001114460,1.4694640308
1787807646008807922,-0.05,,,,1787807646008807922,1.470233377
1787807646016501384,-0.061,,,,1787807646016501384,1.4710027232
1787807646024194846,-0.076,,,,1787807646024194846,1.4717720694
1787807646031888308,-0.089,,,,1787807646031888308,1.4725414156
1787807646039581770,-0.038,,,,1787807646039581770,1.4733107618
1787807646047275232,0.012,,,,1787807646047275232,1.474080108
1787807646054968694,-0.015,,,,1787807646054968694,1.4748494542
1787807646062662156,-0.033,,,,1787807646062662156,1.4756188004
1787807646070355618,0.025,,,,1787807646070355618,1.4763881466
1787807646078049080,0.061,,,,1787807646078049080,1.4771574928
1787807646085742542,0.03,,,,1787807646085742542,1.477926839
1787807646093436004,0.007,,,,1787807646093436004,1.4786961852
1787807646101129466,0.005,,,,1787807646101129466,1.4794655314
1787807646108822928,-0.005,,,,1787807646108822928,1.4802348776
