UNIX Timestamp,ECG,HR,RR,Marker,time,norm_time
1787896679763515818,-0.286,81.0,744.0,,1787896679763515818,0.0
1787896679771214297,-0.281,,,,1787896679771214297,0.0007698479
1787896679778912776,-0.25,,,,1787896679778912776,0.0015396958
1787896679786611255,-0.233,,,,1787896679786611255,0.0023095437
1787896679794309734,-0.24,,,,1787896679794309734,0.0030793916
1787896679802008213,-0.25,,,,1787896679802008213,0.0038492395
1787896679809706692,-0.266,,,,1787896679809706692,0.0046190874
1787896679817405171,-0.281,,,,1787896679817405171,0.0053889353
1787896679825103650,-0.276,,,,1787896679825103650,0.0061587832
1787896679832802129,-0.271,,,,1787896679832802129,0.0069286311
1787896679840500608,-0.283,,,,1787896679840500608,0.007698479
1787896679848199087,-0.286,,,,1787896679848199087,0.0084683269
1787896679855897566,-0.271,,,,1787896679855897566,0.0092381748
1787896679863596045,-0.259,,,,1787896679863596045,0.0100080227
1787896679871294524,-0.254,,,,1787896679871294524,0.0107778706
1787896679878993003,-0.288,,,,1787896679878993003,0.0115477185
1787896679886691482,-0.358,,,,1787896679886691482,0.0123175664
1787896679894389961,-0.214,,,,1787896679894389961,0.0130874143
1787896679902088440,0.355,,,,1787896679902088440,0.0138572622
1787896679909786919,0.94,,,,1787896679909786919,0.0146271101
1787896679917485398,0.711,,,,1787896679917485398,0.015396958
1787896679925183877,-0.358,,,,1787896679925183877,0.0161668059
1787896679932882356,-1.017,,,,1787896679932882356,0.0169366538
1787896679940580835,-0.687,,,,1787896679940580835,0.0177065017
1787896679948279314,-0.384,,,,1787896679948279314,0.0184763496
1787896679955977793,-0.449,,,,1787896679955977793,0.0192461975
1787896679963676272,-0.375,,,,1787896679963676272,0.0200160454
1787896679971374751,-0.274,,,,1787896679971374751,0.0207858933
1787896679979073230,-0.31,,,,1787896679979073230,0.0215557412
1787896679986771709,-0.286,,,,1787896679986771709,0.0223255891
1787896679994470188,-0.226,,,,1787896679994470188,0.023095437
1787896680002168667,-0.228,,,,1787896680002168667,0.0238652849
1787896680009867146,-0.242,,,,1787896680009867146,0.0246351328
1787896680017565625,-0.252,,,,1787896680017565625,0.0254049807
1787896680025264104,-0.259,,,,1787896680025264104,0.0261748286
1787896680032962583,-0.233,,,,1787896680032962583,0.0269446765
1787896680040661062,-0.202,,,,1787896680040661062,0.0277145244
1787896680048359541,-0.192,,,,1787896680048359541,0.0284843723
1787896680056058020,-0.177,,,,1787896680056058020,0.0292542202
1787896680063756499,-0.163,,,,1787896680063756499,0.0300240681
1787896680071454978,-0.165,,,,1787896680071454978,0.030793916
1787896680079153457,-0.146,,,,1787896680079153457,0.0315637639
1787896680086851936,-0.105,,,,1787896680086851936,0.0323336118
1787896680094550415,-0.101,,,,1787896680094550415,0.0331034597
1787896680102248894,-0.096,,,,1787896680102248894,0.0338733076
1787896680109947373,-0.048,,,,1787896680109947373,0.0346431555
1787896680117645852,-0.007,,,,1787896680117645852,0.0354130034
1787896680125344331,-0.026,,,,1787896680125344331,0.0361828513
1787896680133042810,-0.048,,,,1787896680133042810,0.0369526992
1787896680140741289,-0.021,,,,1787896680140741289,0.0377225471
1787896680148439768,-0.002,,,,1787896680148439768,0.038492395
1787896680156138247,-0.026,,,,1787896680156138247,0.0392622429
1787896680163836726,-0.052,,,,1787896680163836726,0.0400320908
1787896680171535205,-0.074,,,,1787896680171535205,0.0408019387
1787896680179233684,-0.113,,,,1787896680179233684,0.0415717866
1787896680186932163,-0.146,,,,1787896680186932163,0.0423416345
1787896680194630642,-0.168,,,,1787896680194630642,0.0431114824
1787896680202329121,-0.211,,,,1787896680202329121,0.0438813303
1787896680210027600,-0.288,,,,1787896680210027600,0.0446511782
1787896680217726079,-0.331,,,,1787896680217726079,0.0454210261
1787896680225424558,-0.339,,,,1787896680225424558,0.046190874
1787896680233123037,-0.336,,,,1787896680233123037,0.0469607219
1787896680240821516,-0.319,,,,1787896680240821516,0.0477305698
1787896680248519995,-0.315,,,,1787896680248519995,0.0485004177
1787896680256218474,-0.322,,,,1787896680256218474,0.0492702656
1787896680263916953,-0.286,,,,1787896680263916953,0.0500401135
1787896680271615432,-0.278,,,,1787896680271615432,0.0508099614
1787896680279313911,-0.334,,,,1787896680279313911,0.0515798093
1787896680287012390,-0.331,,,,1787896680287012390,0.0523496572
1787896680294710869,-0.288,,,,1787896680294710869,0.0531195051
1787896680302409348,-0.283,,,,1787896680302409348,0.053889353
1787896680310107827,-0.288,,,,1787896680310107827,0.0546592009
1787896680317806306,-0.271,,,,1787896680317806306,0.0554290488
1787896680325504788,-0.257,,,,1787896680325504788,0.056198897
1787896680333202918,-0.271,,,,1787896680333202918,0.05696871
1787896680340901048,-0.283,,,,1787896680340901048,0.057738523
1787896680348599178,-0.257,,,,1787896680348599178,0.058508336
1787896680356297308,-0.23,,,,1787896680356297308,0.059278149
1787896680363995438,-0.264,,,,1787896680363995438,0.060047962
1787896680371693568,-0.303,,,,1787896680371693568,0.060817775
1787896680379391698,-0.276,,,,1787896680379391698,0.061587588
1787896680387089828,-0.25,,,,1787896680387089828,0.062357401
1787896680394787958,-0.262,,,,1787896680394787958,0.063127214
1787896680402486088,-0.274,,,,1787896680402486088,0.063897027
1787896680410184218,-0.274,,,,1787896680410184218,0.06466684
1787896680417882348,-0.278,,,,1787896680417882348,0.065436653
1787896680425580478,-0.293,,,,1787896680425580478,0.066206466
1787896680433278608,-0.298,,,,1787896680433278608,0.066976279
1787896680440976738,-0.276,,,,1787896680440976738,0.067746092
1787896680448674868,-0.269,,,,1787896680448674868,0.068515905
1787896680456372998,-0.283,,,,1787896680456372998,0.069285718
1787896680464071128,-0.281,,,,1787896680464071128,0.070055531
1787896680471769258,-0.288,,,,1787896680471769258,0.070825344
1787896680479467388,-0.295,,,,1787896680479467388,0.071595157
1787896680487165518,-0.276,,,,1787896680487165518,0.07236497
1787896680494863648,-0.271,,,,1787896680494863648,0.073134783
1787896680502561778,-0.295,,,,1787896680502561778,0.073904596
1787896680510259908,-0.315,,,,1787896680510259908,0.074674409
1787896680517958038,-0.3,,,,1787896680517958038,0.075444222
1787896680525656168,-0.266,,,,1787896680525656168,0.076214035
1787896680533354298,-0.25,,,,1787896680533354298,0.076983848
1787896680541052428,-0.264,,,,1787896680541052428,0.077753661
1787896680548750558,-0.278,,,,1787896680548750558,0.078523474
1787896680556448688,-0.259,,,,1787896680556448688,0.079293287
1787896680564146818,-0.254,,,,1787896680564146818,0.0800631
1787896680571844948,-0.276,,,,1787896680571844948,0.080832913
1787896680579543078,-0.264,,,,1787896680579543078,0.081602726
1787896680587241208,-0.257,,,,1787896680587241208,0.082372539
1787896680594939338,-0.29,,,,1787896680594939338,0.083142352
1787896680602637468,-0.305,,,,1787896680602637468,0.083912165
1787896680610335598,-0.281,,,,1787896680610335598,0.084681978
1787896680618033728,-0.264,,,,1787896680618033728,0.085451791
1787896680625731858,-0.271,,,,1787896680625731858,0.086221604
1787896680633429988,-0.276,,,,1787896680633429988,0.086991417
1787896680641128118,-0.281,,,,1787896680641128118,0.08776123
1787896680648826248,-0.341,,,,1787896680648826248,0.088531043
1787896680656524378,-0.401,,,,1787896680656524378,0.089300856
1787896680664222508,-0.233,,,,1787896680664222508,0.090070669
1787896680671920638,0.317,,,,1787896680671920638,0.090840482
1787896680679618768,0.887,,,,1787896680679618768,0.091610295
1787896680687316898,0.6940000000000001,,,,1787896680687316898,0.092380108
1787896680695015028,-0.348,,,,1787896680695015028,0.093149921
1787896680702713158,-1.043,,,,1787896680702713158,0.093919734
1787896680710411288,-0.745,,,,1787896680710411288,0.094689547
1787896680718109418,-0.406,,,,1787896680718109418,0.09545936
1787896680725807548,-0.447,,,,1787896680725807548,0.096229173
1787896680733505678,-0.399,,,,1787896680733505678,0.096998986
1787896680741203808,-0.305,,,,1787896680741203808,0.097768799
1787896680748901938,-0.319,,,,1787896680748901938,0.098538612
1787896680756600068,-0.298,,,,1787896680756600068,0.099308425
1787896680764298198,-0.252,,,,1787896680764298198,0.100078238
1787896680771996328,-0.271,,,,1787896680771996328,0.100848051
1787896680779694458,-0.276,,,,1787896680779694458,0.101617864
1787896680787392588,-0.228,,,,1787896680787392588,0.102387677
1787896680795090718,-0.211,,,,1787896680795090718,0.10315749
1787896680802788848,-0.238,,,,1787896680802788848,0.103927303
1787896680810486978,-0.24,,,,1787896680810486978,0.104697116
1787896680818185108,-0.199,,,,1787896680818185108,0.105466929
1787896680825883238,-0.168,,,,1787896680825883238,0.106236742
1787896680833581368,-0.204,,,,1787896680833581368,0.107006555
1787896680841279498,-0.252,,,,1787896680841279498,0.107776368
1787896680848977628,-0.216,,,,1787896680848977628,0.108546181
1787896680856675758,-0.141,,,,1787896680856675758,0.109315994
1787896680864373888,-0.105,,,,1787896680864373888,0.110085807
1787896680872072018,-0.093,,,,1787896680872072018,0.11085562
1787896680879770148,-0.081,,,,1787896680879770148,0.111625433
1787896680887468326,-0.057,81.0,695.0,,1787896680887468326,0.1123952508
1787896680895166735,-0.036,,716.0,,1787896680895166735,0.1131650917
1787896680902865144,-0.036,,,,1787896680902865144,0.1139349326
1787896680910563553,-0.057,,,,1787896680910563553,0.1147047735
1787896680918261962,-0.088,,,,1787896680918261962,0.1154746144
1787896680925960371,-0.11,,,,1787896680925960371,0.1162444553
1787896680933658780,-0.108,,,,1787896680933658780,0.1170142962
1787896680941357189,-0.115,,,,1787896680941357189,0.1177841371
1787896680949055598,-0.153,,,,1787896680949055598,0.118553978
1787896680956754007,-0.18,,,,1787896680956754007,0.1193238189
1787896680964452416,-0.199,,,,1787896680964452416,0.1200936598
1787896680972150825,-0.23,,,,1787896680972150825,0.1208635007
1787896680979849234,-0.278,,,,1787896680979849234,0.1216333416
1787896680987547643,-0.343,,,,1787896680987547643,0.1224031825
1787896680995246052,-0.372,,,,1787896680995246052,0.1231730234
1787896681002944461,-0.355,,,,1787896681002944461,0.1239428643
1787896681010642870,-0.351,,,,1787896681010642870,0.1247127052
1787896681018341279,-0.355,,,,1787896681018341279,0.1254825461
1787896681026039688,-0.353,,,,1787896681026039688,0.126252387
1787896681033738097,-0.346,,,,1787896681033738097,0.1270222279
1787896681041436506,-0.322,,,,1787896681041436506,0.1277920688
1787896681049134915,-0.312,,,,1787896681049134915,0.1285619097
1787896681056833324,-0.341,,,,1787896681056833324,0.1293317506
1787896681064531733,-0.334,,,,1787896681064531733,0.1301015915
1787896681072230142,-0.286,,,,1787896681072230142,0.1308714324
1787896681079928551,-0.286,,,,1787896681079928551,0.1316412733
1787896681087626960,-0.307,,,,1787896681087626960,0.1324111142
1787896681095325369,-0.29,,,,1787896681095325369,0.1331809551
1787896681103023778,-0.281,,,,1787896681103023778,0.133950796
1787896681110722187,-0.293,,,,1787896681110722187,0.1347206369
1787896681118420596,-0.281,,,,1787896681118420596,0.1354904778
1787896681126119005,-0.264,,,,1787896681126119005,0.1362603187
1787896681133817414,-0.274,,,,1787896681133817414,0.1370301596
1787896681141515823,-0.283,,,,1787896681141515823,0.1378000005
1787896681149214232,-0.266,,,,1787896681149214232,0.1385698414
1787896681156912641,-0.25,,,,1787896681156912641,0.1393396823
1787896681164611050,-0.29,,,,1787896681164611050,0.1401095232
1787896681172309459,-0.346,,,,1787896681172309459,0.1408793641
1787896681180007868,-0.324,,,,1787896681180007868,0.141649205
1787896681187706277,-0.286,,,,1787896681187706277,0.1424190459
1787896681195404686,-0.3,,,,1787896681195404686,0.1431888868
1787896681203103095,-0.307,,,,1787896681203103095,0.1439587277
1787896681210801504,-0.29,,,,1787896681210801504,0.1447285686
1787896681218499913,-0.288,,,,1787896681218499913,0.1454984095
1787896681226198322,-0.295,,,,1787896681226198322,0.1462682504
1787896681233896731,-0.29,,,,1787896681233896731,0.1470380913
1787896681241595140,-0.288,,,,1787896681241595140,0.1478079322
1787896681249293549,-0.286,,,,1787896681249293549,0.1485777731
1787896681256991958,-0.271,,,,1787896681256991958,0.149347614
1787896681264690367,-0.276,,,,1787896681264690367,0.1501174549
1787896681272388776,-0.293,,,,1787896681272388776,0.1508872958
1787896681280087185,-0.286,,,,1787896681280087185,0.1516571367
1787896681287785594,-0.29,,,,1787896681287785594,0.1524269776
1787896681295484003,-0.312,,,,1787896681295484003,0.1531968185
1787896681303182412,-0.288,,,,1787896681303182412,0.1539666594
1787896681310880821,-0.245,,,,1787896681310880821,0.1547365003
1787896681318579230,-0.242,,,,1787896681318579230,0.1555063412
1787896681326277639,-0.262,,,,1787896681326277639,0.1562761821
1787896681333976048,-0.266,,,,1787896681333976048,0.157046023
1787896681341674457,-0.269,,,,1787896681341674457,0.1578158639
1787896681349372866,-0.274,,,,1787896681349372866,0.1585857048
1787896681357071275,-0.276,,,,1787896681357071275,0.1593555457
1787896681364769684,-0.269,,,,1787896681364769684,0.1601253866
1787896681372468093,-0.254,,,,1787896681372468093,0.1608952275
1787896681380166502,-0.259,,,,1787896681380166502,0.1616650684
1787896681387864911,-0.286,,,,1787896681387864911,0.1624349093
1787896681395563320,-0.29,,,,1787896681395563320,0.1632047502
1787896681403261729,-0.254,,,,1787896681403261729,0.1639745911
1787896681410960138,-0.221,,,,1787896681410960138,0.164744432
1787896681418658547,-0.218,,,,1787896681418658547,0.1655142729
1787896681426356956,-0.24,,,,1787896681426356956,0.1662841138
1787896681434055365,-0.271,,,,1787896681434055365,0.1670539547
1787896681441753774,-0.286,,,,1787896681441753774,0.1678237956
1787896681449452208,-0.271,82.0,804.0,,1787896681449452208,0.168593639
1787896681457150408,-0.242,,,,1787896681457150408,0.169363459
1787896681464848608,-0.262,,,,1787896681464848608,0.170133279
1787896681472546808,-0.331,,,,1787896681472546808,0.170903099
1787896681480245008,-0.343,,,,1787896681480245008,0.171672919
1787896681487943208,-0.281,,,,1787896681487943208,0.172442739
1787896681495641408,-0.259,,,,1787896681495641408,0.173212559
1787896681503339608,-0.334,,,,1787896681503339608,0.173982379
1787896681511037808,-0.327,,,,1787896681511037808,0.174752199
1787896681518736008,0.043,,,,1787896681518736008,0.175522019
1787896681526434208,0.6970000000000001,,,,1787896681526434208,0.176291839
1787896681534132408,1.007,,,,1787896681534132408,0.177061659
1787896681541830608,0.343,,,,1787896681541830608,0.177831479
1787896681549528808,-0.8,,,,1787896681549528808,0.178601299
1787896681557227008,-1.055,,,,1787896681557227008,0.179371119
1787896681564925208,-0.536,,,,1787896681564925208,0.180140939
1787896681572623408,-0.372,,,,1787896681572623408,0.180910759
1787896681580321608,-0.449,,,,1787896681580321608,0.181680579
1787896681588019808,-0.334,,,,1787896681588019808,0.182450399
1787896681595718008,-0.264,,,,1787896681595718008,0.183220219
1787896681603416208,-0.315,,,,1787896681603416208,0.183990039
1787896681611114408,-0.303,,,,1787896681611114408,0.184759859
1787896681618812608,-0.264,,,,1787896681618812608,0.185529679
1787896681626510808,-0.266,,,,1787896681626510808,0.186299499
1787896681634209008,-0.259,,,,1787896681634209008,0.187069319
1787896681641907208,-0.252,,,,1787896681641907208,0.187839139
1787896681649605408,-0.278,,,,1787896681649605408,0.188608959
1787896681657303608,-0.281,,,,1787896681657303608,0.189378779
1787896681665001808,-0.252,,,,1787896681665001808,0.190148599
1787896681672700008,-0.247,,,,1787896681672700008,0.190918419
1787896681680398208,-0.247,,,,1787896681680398208,0.191688239
1787896681688096408,-0.218,,,,1787896681688096408,0.192458059
1787896681695794608,-0.192,,,,1787896681695794608,0.193227879
1787896681703492808,-0.182,,,,1787896681703492808,0.193997699
1787896681711191008,-0.17,,,,1787896681711191008,0.194767519
1787896681718889208,-0.141,,,,1787896681718889208,0.195537339
1787896681726587408,-0.129,,,,1787896681726587408,0.196307159
1787896681734285608,-0.132,,,,1787896681734285608,0.197076979
1787896681741983808,-0.113,,,,1787896681741983808,0.197846799
1787896681749682008,-0.091,,,,1787896681749682008,0.198616619
1787896681757380208,-0.086,,,,1787896681757380208,0.199386439
1787896681765078408,-0.076,,,,1787896681765078408,0.200156259
1787896681772776608,-0.062,,,,1787896681772776608,0.200926079
1787896681780474808,-0.081,,,,1787896681780474808,0.201695899
1787896681788173008,-0.115,,,,1787896681788173008,0.202465719
1787896681795871208,-0.125,,,,1787896681795871208,0.203235539
1787896681803569408,-0.144,,,,1787896681803569408,0.204005359
1787896681811267608,-0.192,,,,1787896681811267608,0.204775179
1787896681818965808,-0.233,,,,1787896681818965808,0.205544999
1787896681826664008,-0.274,,,,1787896681826664008,0.206314819
1787896681834362208,-0.322,,,,1787896681834362208,0.207084639
1787896681842060408,-0.341,,,,1787896681842060408,0.207854459
1787896681849758608,-0.346,,,,1787896681849758608,0.208624279
1787896681857456808,-0.363,,,,1787896681857456808,0.209394099
1787896681865155008,-0.375,,,,1787896681865155008,0.210163919
1787896681872853208,-0.367,,,,1787896681872853208,0.210933739
1787896681880551408,-0.355,,,,1787896681880551408,0.211703559
1787896681888249608,-0.367,,,,1787896681888249608,0.212473379
1787896681895947808,-0.377,,,,1787896681895947808,0.213243199
1787896681903646008,-0.365,,,,1787896681903646008,0.214013019
1787896681911344208,-0.346,,,,1787896681911344208,0.214782839
1787896681919042408,-0.341,,,,1787896681919042408,0.215552659
1787896681926740608,-0.343,,,,1787896681926740608,0.216322479
1787896681934438808,-0.351,,,,1787896681934438808,0.217092299
1787896681942137008,-0.339,,,,1787896681942137008,0.217862119
1787896681949835208,-0.317,,,,1787896681949835208,0.218631939
1787896681957533408,-0.317,,,,1787896681957533408,0.219401759
1787896681965231608,-0.329,,,,1787896681965231608,0.220171579
1787896681972929808,-0.331,,,,1787896681972929808,0.220941399
1787896681980628008,-0.331,,,,1787896681980628008,0.221711219
1787896681988326208,-0.346,,,,1787896681988326208,0.222481039
1787896681996024408,-0.353,,,,1787896681996024408,0.223250859
1787896682003722608,-0.346,,,,1787896682003722608,0.224020679
1787896682011420832,-0.351,,,,1787896682011420832,0.2247905014
1787896682019119032,-0.353,,,,1787896682019119032,0.2255603214
1787896682026817232,-0.341,,,,1787896682026817232,0.2263301414
1787896682034515432,-0.339,,,,1787896682034515432,0.2270999614
1787896682042213632,-0.353,,,,1787896682042213632,0.2278697814
1787896682049911832,-0.351,,,,1787896682049911832,0.2286396014
1787896682057610032,-0.334,,,,1787896682057610032,0.2294094214
1787896682065308232,-0.331,,,,1787896682065308232,0.2301792414
1787896682073006432,-0.355,,,,1787896682073006432,0.2309490614
1787896682080704632,-0.372,,,,1787896682080704632,0.2317188814
1787896682088402832,-0.348,,,,1787896682088402832,0.2324887014
1787896682096101032,-0.334,,,,1787896682096101032,0.2332585214
1787896682103799232,-0.348,,,,1787896682103799232,0.2340283414
1787896682111497432,-0.346,,,,1787896682111497432,0.2347981614
1787896682119195632,-0.327,,,,1787896682119195632,0.2355679814
1787896682126893832,-0.329,,,,1787896682126893832,0.2363378014
1787896682134592032,-0.336,,,,1787896682134592032,0.2371076214
1787896682142290232,-0.324,,,,1787896682142290232,0.2378774414
1787896682149988432,-0.317,,,,1787896682149988432,0.2386472614
1787896682157686632,-0.327,,,,1787896682157686632,0.2394170814
1787896682165384832,-0.331,,,,1787896682165384832,0.2401869014
1787896682173083032,-0.322,,,,1787896682173083032,0.2409567214
1787896682180781232,-0.305,,,,1787896682180781232,0.2417265414
1787896682188479432,-0.307,,,,1787896682188479432,0.2424963614
1787896682196177632,-0.327,,,,1787896682196177632,0.2432661814
1787896682203875832,-0.339,,,,1787896682203875832,0.2440360014
1787896682211574032,-0.317,,,,1787896682211574032,0.2448058214
1787896682219272232,-0.29,,,,1787896682219272232,0.2455756414
1787896682226970432,-0.305,,,,1787896682226970432,0.2463454614
1787896682234668632,-0.331,,,,1787896682234668632,0.2471152814
1787896682242366832,-0.327,,,,1787896682242366832,0.2478851014
1787896682250065032,-0.305,,,,1787896682250065032,0.2486549214
1787896682257763232,-0.31,,,,1787896682257763232,0.2494247414
1787896682265461432,-0.329,,,,1787896682265461432,0.2501945614
1787896682273159632,-0.312,,,,1787896682273159632,0.2509643814
1787896682280857832,-0.271,,,,1787896682280857832,0.2517342014
1787896682288556032,-0.271,,,,1787896682288556032,0.2525040214
1787896682296254232,-0.303,,,,1787896682296254232,0.2532738414
1787896682303952432,-0.288,,,,1787896682303952432,0.2540436614
1787896682311650632,-0.247,,,,1787896682311650632,0.2548134814
1787896682319348832,-0.24,,,,1787896682319348832,0.2555833014
1787896682327047032,-0.262,,,,1787896682327047032,0.2563531214
1787896682334745232,-0.276,,,,1787896682334745232,0.2571229414
1787896682342443432,-0.283,,,,1787896682342443432,0.2578927614
1787896682350141632,-0.29,,,,1787896682350141632,0.2586625814
1787896682357839832,-0.283,,,,1787896682357839832,0.2594324014
1787896682365538032,-0.271,,,,1787896682365538032,0.2602022214
1787896682373236232,-0.283,,,,1787896682373236232,0.2609720414
1787896682380934432,-0.29,,,,1787896682380934432,0.2617418614
1787896682388632632,-0.259,,,,1787896682388632632,0.2625116814
1787896682396330832,-0.259,,,,1787896682396330832,0.2632815014
1787896682404029032,-0.346,,,,1787896682404029032,0.2640513214
1787896682411727232,-0.348,,,,1787896682411727232,0.2648211414
1787896682419425432,0.014,,,,1787896682419425432,0.2655909614
1787896682427123632,0.656,,,,1787896682427123632,0.2663607814
1787896682434821832,1.007,,,,1787896682434821832,0.2671306014
1787896682442520032,0.416,,,,1787896682442520032,0.2679004214
1787896682450218232,-0.738,,,,1787896682450218232,0.2686702414
1787896682457916432,-1.053,,,,1787896682457916432,0.2694400614
1787896682465614632,-0.502,,,,1787896682465614632,0.2702098814
1787896682473312832,-0.29,,,,1787896682473312832,0.2709797014
1787896682481011032,-0.406,,,,1787896682481011032,0.2717495214
1787896682488709232,-0.329,,,,1787896682488709232,0.2725193414
1787896682496407432,-0.252,,,,1787896682496407432,0.2732891614
1787896682504105632,-0.278,,,,1787896682504105632,0.2740589814
1787896682511803832,-0.262,,,,1787896682511803832,0.2748288014
1787896682519502032,-0.24,,,,1787896682519502032,0.2755986214
1787896682527200232,-0.271,,,,1787896682527200232,0.2763684414
1787896682534898432,-0.264,,,,1787896682534898432,0.2771382614
1787896682542596632,-0.235,,,,1787896682542596632,0.2779080814
1787896682550294832,-0.23,,,,1787896682550294832,0.2786779014
1787896682557993032,-0.216,,,,1787896682557993032,0.2794477214
1787896682565691232,-0.197,,,,1787896682565691232,0.2802175414
1787896682573389456,-0.202,81.0,771.0,,1787896682573389456,0.2809873638
1787896682581088004,-0.199,,,,1787896682581088004,0.2817572186
1787896682588786552,-0.177,,,,1787896682588786552,0.2825270734
1787896682596485100,-0.156,,,,1787896682596485100,0.2832969282
1787896682604183648,-0.141,,,,1787896682604183648,0.284066783
1787896682611882196,-0.117,,,,1787896682611882196,0.2848366378
1787896682619580744,-0.091,,,,1787896682619580744,0.2856064926
1787896682627279292,-0.076,,,,1787896682627279292,0.2863763474
1787896682634977840,-0.062,,,,1787896682634977840,0.2871462022
1787896682642676388,-0.04,,,,1787896682642676388,0.287916057
1787896682650374936,-0.026,,,,1787896682650374936,0.2886859118
1787896682658073484,-0.012,,,,1787896682658073484,0.2894557666
1787896682665772032,-0.009,,,,1787896682665772032,0.2902256214
1787896682673470580,-0.026,,,,1787896682673470580,0.2909954762
1787896682681169128,-0.04,,,,1787896682681169128,0.291765331
1787896682688867676,-0.05,,,,1787896682688867676,0.2925351858
1787896682696566224,-0.064,,,,1787896682696566224,0.2933050406
1787896682704264772,-0.086,,,,1787896682704264772,0.2940748954
1787896682711963320,-0.117,,,,1787896682711963320,0.2948447502
1787896682719661868,-0.151,,,,1787896682719661868,0.295614605
1787896682727360416,-0.175,,,,1787896682727360416,0.2963844598
1787896682735058964,-0.187,,,,1787896682735058964,0.2971543146
1787896682742757512,-0.228,,,,1787896682742757512,0.2979241694
1787896682750456060,-0.276,,,,1787896682750456060,0.2986940242
1787896682758154608,-0.274,,,,1787896682758154608,0.299463879
1787896682765853156,-0.252,,,,1787896682765853156,0.3002337338
1787896682773551704,-0.252,,,,1787896682773551704,0.3010035886
1787896682781250252,-0.242,,,,1787896682781250252,0.3017734434
1787896682788948800,-0.233,,,,1787896682788948800,0.3025432982
1787896682796647348,-0.226,,,,1787896682796647348,0.303313153
1787896682804345896,-0.209,,,,1787896682804345896,0.3040830078
1787896682812044444,-0.189,,,,1787896682812044444,0.3048528626
1787896682819742992,-0.173,,,,1787896682819742992,0.3056227174
1787896682827441540,-0.187,,,,1787896682827441540,0.3063925722
1787896682835140088,-0.221,,,,1787896682835140088,0.307162427
1787896682842838636,-0.202,,,,1787896682842838636,0.3079322818
1787896682850537184,-0.17,,,,1787896682850537184,0.3087021366
1787896682858235732,-0.182,,,,1787896682858235732,0.3094719914
1787896682865934280,-0.187,,,,1787896682865934280,0.3102418462
1787896682873632828,-0.175,,,,1787896682873632828,0.311011701
1787896682881331376,-0.175,,,,1787896682881331376,0.3117815558
1787896682889029924,-0.187,,,,1787896682889029924,0.3125514106
1787896682896728472,-0.185,,,,1787896682896728472,0.3133212654
1787896682904427020,-0.177,,,,1787896682904427020,0.3140911202
1787896682912125568,-0.18,,,,1787896682912125568,0.314860975
1787896682919824116,-0.187,,,,1787896682919824116,0.3156308298
1787896682927522664,-0.194,,,,1787896682927522664,0.3164006846
1787896682935221212,-0.197,,,,1787896682935221212,0.3171705394
1787896682942919760,-0.194,,,,1787896682942919760,0.3179403942
1787896682950618308,-0.199,,,,1787896682950618308,0.318710249
1787896682958316856,-0.204,,,,1787896682958316856,0.3194801038
1787896682966015404,-0.206,,,,1787896682966015404,0.3202499586
1787896682973713952,-0.202,,,,1787896682973713952,0.3210198134
1787896682981412500,-0.197,,,,1787896682981412500,0.3217896682
1787896682989111048,-0.209,,,,1787896682989111048,0.322559523
1787896682996809596,-0.223,,,,1787896682996809596,0.3233293778
1787896683004508144,-0.214,,,,1787896683004508144,0.3240992326
1787896683012206692,-0.192,,,,1787896683012206692,0.3248690874
1787896683019905240,-0.192,,,,1787896683019905240,0.3256389422
1787896683027603788,-0.211,,,,1787896683027603788,0.326408797
1787896683035302336,-0.214,,,,1787896683035302336,0.3271786518
1787896683043000884,-0.192,,,,1787896683043000884,0.3279485066
1787896683050699432,-0.185,,,,1787896683050699432,0.3287183614
1787896683058397980,-0.189,,,,1787896683058397980,0.3294882162
1787896683066096528,-0.185,,,,1787896683066096528,0.330258071
1787896683073795076,-0.18,,,,1787896683073795076,0.3310279258
1787896683081493624,-0.189,,,,1787896683081493624,0.3317977806
1787896683089192172,-0.199,,,,1787896683089192172,0.3325676354
1787896683096890720,-0.187,,,,1787896683096890720,0.3333374902
1787896683104589268,-0.161,,,,1787896683104589268,0.334107345
1787896683112287816,-0.165,,,,1787896683112287816,0.3348771998
1787896683119986364,-0.206,,,,1787896683119986364,0.3356470546
1787896683127684912,-0.223,,,,1787896683127684912,0.3364169094
1787896683135383516,-0.204,,,,1787896683135383516,0.3371867698
1787896683143081786,-0.173,,,,1787896683143081786,0.3379565968
1787896683150780056,-0.153,,,,1787896683150780056,0.3387264238
1787896683158478326,-0.173,,,,1787896683158478326,0.3394962508
1787896683166176596,-0.226,,,,1787896683166176596,0.3402660778
1787896683173874866,-0.218,,,,1787896683173874866,0.3410359048
1787896683181573136,-0.173,,,,1787896683181573136,0.3418057318
1787896683189271406,-0.189,,,,1787896683189271406,0.3425755588
1787896683196969676,-0.218,,,,1787896683196969676,0.3433453858
1787896683204667946,-0.199,,,,1787896683204667946,0.3441152128
1787896683212366216,-0.177,,,,1787896683212366216,0.3448850398
1787896683220064486,-0.173,,,,1787896683220064486,0.3456548668
1787896683227762756,-0.182,,,,1787896683227762756,0.3464246938
1787896683235461026,-0.187,,,,1787896683235461026,0.3471945208
1787896683243159296,-0.158,,,,1787896683243159296,0.3479643478
1787896683250857566,-0.115,,,,1787896683250857566,0.3487341748
1787896683258555836,-0.115,,,,1787896683258555836,0.3495040018
1787896683266254106,-0.163,,,,1787896683266254106,0.3502738288
1787896683273952376,-0.199,,,,1787896683273952376,0.3510436558
1787896683281650646,-0.194,,,,1787896683281650646,0.3518134828
1787896683289348916,-0.177,,,,1787896683289348916,0.3525833098
1787896683297047186,-0.17,,,,1787896683297047186,0.3533531368
1787896683304745456,-0.165,,,,1787896683304745456,0.3541229638
1787896683312443726,-0.161,,,,1787896683312443726,0.3548927908
1787896683320141996,-0.161,,,,1787896683320141996,0.3556626178
1787896683327840266,-0.165,,,,1787896683327840266,0.3564324448
1787896683335538536,-0.18,,,,1787896683335538536,0.3572022718
1787896683343236806,-0.228,,,,1787896683343236806,0.3579720988
1787896683350935076,-0.189,,,,1787896683350935076,0.3587419258
1787896683358633346,0.161,,,,1787896683358633346,0.3595117528
1787896683366331616,0.6920000000000001,,,,1787896683366331616,0.3602815798
1787896683374029886,0.8270000000000001,,,,1787896683374029886,0.3610514068
1787896683381728156,0.168,,,,1787896683381728156,0.3618212338
1787896683389426426,-0.646,,,,1787896683389426426,0.3625910608
1787896683397124696,-0.675,,,,1787896683397124696,0.3633608878
1787896683404822966,-0.322,,,,1787896683404822966,0.3641307148
1787896683412521236,-0.288,,,,1787896683412521236,0.3649005418
1787896683420219506,-0.312,,,,1787896683420219506,0.3656703688
1787896683427917776,-0.192,,,,1787896683427917776,0.3664401958
1787896683435616046,-0.146,,,,1787896683435616046,0.3672100228
1787896683443314316,-0.199,,,,1787896683443314316,0.3679798498
1787896683451012586,-0.202,,,,1787896683451012586,0.3687496768
1787896683458710856,-0.151,,,,1787896683458710856,0.3695195038
1787896683466409126,-0.146,,,,1787896683466409126,0.3702893308
1787896683474107396,-0.165,,,,1787896683474107396,0.3710591578
1787896683481805666,-0.151,,,,1787896683481805666,0.3718289848
1787896683489503936,-0.146,,,,1787896683489503936,0.3725988118
1787896683497202206,-0.163,,,,1787896683497202206,0.3733686388
1787896683504900476,-0.168,,,,1787896683504900476,0.3741384658
1787896683512598746,-0.149,,,,1787896683512598746,0.3749082928
1787896683520297016,-0.122,,,,1787896683520297016,0.3756781198
1787896683527995286,-0.103,,,,1787896683527995286,0.3764479468
1787896683535693556,-0.103,,,,1787896683535693556,0.3772177738
1787896683543391826,-0.11,,,,1787896683543391826,0.3779876008
1787896683551090096,-0.088,,,,1787896683551090096,0.3787574278
1787896683558788366,-0.045,,,,1787896683558788366,0.3795272548
1787896683566486636,-0.024,,,,1787896683566486636,0.3802970818
1787896683574184906,-0.021,,,,1787896683574184906,0.3810669088
1787896683581883176,-0.016,,,,1787896683581883176,0.3818367358
1787896683589581446,-0.002,,,,1787896683589581446,0.3826065628
1787896683597279716,0.014,,,,1787896683597279716,0.3833763898
1787896683604977986,0.012,,,,1787896683604977986,0.3841462168
1787896683612676256,-0.016,,,,1787896683612676256,0.3849160438
1787896683620374526,-0.045,,,,1787896683620374526,0.3856858708
1787896683628072796,-0.05,,,,1787896683628072796,0.3864556978
1787896683635771066,-0.055,,,,1787896683635771066,0.3872255248
1787896683643469336,-0.081,,,,1787896683643469336,0.3879953518
1787896683651167606,-0.115,,,,1787896683651167606,0.3887651788
1787896683658865876,-0.146,,,,1787896683658865876,0.3895350058
1787896683666564146,-0.182,,,,1787896683666564146,0.3903048328
1787896683674262416,-0.206,,,,1787896683674262416,0.3910746598
1787896683681960686,-0.223,,,,1787896683681960686,0.3918444868
1787896683689658956,-0.245,,,,1787896683689658956,0.3926143138
1787896683697357226,-0.257,81.0,851.0,,1787896683697357226,0.3933841408
1787896683705055635,-0.266,,,,1787896683705055635,0.3941539817
1787896683712754044,-0.266,,,,1787896683712754044,0.3949238226
1787896683720452453,-0.252,,,,1787896683720452453,0.3956936635
1787896683728150862,-0.25,,,,1787896683728150862,0.3964635044
1787896683735849271,-0.257,,,,1787896683735849271,0.3972333453
1787896683743547680,-0.259,,,,1787896683743547680,0.3980031862
1787896683751246089,-0.25,,,,1787896683751246089,0.3987730271
1787896683758944498,-0.235,,,,1787896683758944498,0.399542868
1787896683766642907,-0.235,,,,1787896683766642907,0.4003127089
1787896683774341316,-0.228,,,,1787896683774341316,0.4010825498
1787896683782039725,-0.206,,,,1787896683782039725,0.4018523907
1787896683789738134,-0.202,,,,1787896683789738134,0.4026222316
1787896683797436543,-0.218,,,,1787896683797436543,0.4033920725
1787896683805134952,-0.223,,,,1787896683805134952,0.4041619134
1787896683812833361,-0.214,,,,1787896683812833361,0.4049317543
1787896683820531770,-0.216,,,,1787896683820531770,0.4057015952
1787896683828230179,-0.223,,,,1787896683828230179,0.4064714361
1787896683835928588,-0.216,,,,1787896683835928588,0.407241277
1787896683843626997,-0.206,,,,1787896683843626997,0.4080111179
1787896683851325406,-0.214,,,,1787896683851325406,0.4087809588
1787896683859023815,-0.228,,,,1787896683859023815,0.4095507997
1787896683866722224,-0.228,,,,1787896683866722224,0.4103206406
1787896683874420633,-0.223,,,,1787896683874420633,0.4110904815
1787896683882119042,-0.223,,,,1787896683882119042,0.4118603224
1787896683889817451,-0.245,,,,1787896683889817451,0.4126301633
1787896683897515860,-0.259,,,,1787896683897515860,0.4134000042
1787896683905214269,-0.24,,,,1787896683905214269,0.4141698451
1787896683912912678,-0.223,,,,1787896683912912678,0.414939686
1787896683920611087,-0.228,,,,1787896683920611087,0.4157095269
1787896683928309496,-0.23,,,,1787896683928309496,0.4164793678
1787896683936007905,-0.216,,,,1787896683936007905,0.4172492087
1787896683943706314,-0.202,,,,1787896683943706314,0.4180190496
1787896683951404723,-0.206,,,,1787896683951404723,0.4187888905
1787896683959103132,-0.221,,,,1787896683959103132,0.4195587314
1787896683966801541,-0.228,,,,1787896683966801541,0.4203285723
1787896683974499950,-0.221,,,,1787896683974499950,0.4210984132
1787896683982198359,-0.202,,,,1787896683982198359,0.4218682541
1787896683989896768,-0.192,,,,1787896683989896768,0.422638095
1787896683997595177,-0.199,,,,1787896683997595177,0.4234079359
1787896684005293586,-0.199,,,,1787896684005293586,0.4241777768
1787896684012991995,-0.185,,,,1787896684012991995,0.4249476177
1787896684020690404,-0.177,,,,1787896684020690404,0.4257174586
1787896684028388813,-0.185,,,,1787896684028388813,0.4264872995
1787896684036087222,-0.189,,,,1787896684036087222,0.4272571404
1787896684043785631,-0.185,,,,1787896684043785631,0.4280269813
1787896684051484040,-0.177,,,,1787896684051484040,0.4287968222
1787896684059182449,-0.173,,,,1787896684059182449,0.4295666631
1787896684066880858,-0.185,,,,1787896684066880858,0.430336504
1787896684074579267,-0.187,,,,1787896684074579267,0.4311063449
1787896684082277676,-0.158,,,,1787896684082277676,0.4318761858
1787896684089976085,-0.132,,,,1787896684089976085,0.4326460267
1787896684097674494,-0.134,,,,1787896684097674494,0.4334158676
1787896684105372903,-0.146,,,,1787896684105372903,0.4341857085
1787896684113071312,-0.139,,,,1787896684113071312,0.4349555494
1787896684120769721,-0.127,,,,1787896684120769721,0.4357253903
1787896684128468130,-0.134,,,,1787896684128468130,0.4364952312
1787896684136166539,-0.146,,,,1787896684136166539,0.4372650721
1787896684143864948,-0.158,,,,1787896684143864948,0.438034913
1787896684151563357,-0.165,,,,1787896684151563357,0.4388047539
1787896684159261766,-0.158,,,,1787896684159261766,0.4395745948
1787896684166960175,-0.156,,,,1787896684166960175,0.4403444357
1787896684174658584,-0.165,,,,1787896684174658584,0.4411142766
1787896684182356993,-0.156,,,,1787896684182356993,0.4418841175
1787896684190055402,-0.144,,,,1787896684190055402,0.4426539584
1787896684197753811,-0.163,,,,1787896684197753811,0.4434237993
1787896684205452220,-0.197,,,,1787896684205452220,0.4441936402
1787896684213150629,-0.233,,,,1787896684213150629,0.4449634811
1787896684220849038,-0.149,,,,1787896684220849038,0.445733322
1787896684228547447,0.259,,,,1787896684228547447,0.4465031629
1787896684236245856,0.791,,,,1787896684236245856,0.4472730038
1787896684243944265,0.752,,,,1787896684243944265,0.4480428447
1787896684251642674,-0.076,,,,1787896684251642674,0.4488126856
1787896684259341110,-0.738,,,,1787896684259341110,0.4495825292
1787896684267039519,-0.579,,,,1787896684267039519,0.4503523701
1787896684274737928,-0.295,,,,1787896684274737928,0.451122211
1787896684282436337,-0.288,,,,1787896684282436337,0.4518920519
1787896684290134746,-0.24,,,,1787896684290134746,0.4526618928
1787896684297833155,-0.146,,,,1787896684297833155,0.4534317337
1787896684305531564,-0.146,,,,1787896684305531564,0.4542015746
1787896684313229973,-0.149,,,,1787896684313229973,0.4549714155
1787896684320928382,-0.125,,,,1787896684320928382,0.4557412564
1787896684328626791,-0.12,,,,1787896684328626791,0.4565110973
1787896684336325200,-0.12,,,,1787896684336325200,0.4572809382
1787896684344023609,-0.11,,,,1787896684344023609,0.4580507791
1787896684351722018,-0.105,,,,1787896684351722018,0.45882062
1787896684359420427,-0.103,,,,1787896684359420427,0.4595904609
1787896684367118836,-0.096,,,,1787896684367118836,0.4603603018
1787896684374817245,-0.091,,,,1787896684374817245,0.4611301427
1787896684382515654,-0.088,,,,1787896684382515654,0.4618999836
1787896684390214063,-0.076,,,,1787896684390214063,0.4626698245
1787896684397912472,-0.055,,,,1787896684397912472,0.4634396654
1787896684405610881,-0.04,,,,1787896684405610881,0.4642095063
1787896684413309290,-0.036,,,,1787896684413309290,0.4649793472
1787896684421007699,-0.016,,,,1787896684421007699,0.4657491881
1787896684428706108,0.004,,,,1787896684428706108,0.466519029
1787896684436404517,0.024,,,,1787896684436404517,0.4672888699
1787896684444102926,0.045,,,,1787896684444102926,0.4680587108
1787896684451801335,0.05,,,,1787896684451801335,0.4688285517
1787896684459499744,0.036,,,,1787896684459499744,0.4695983926
1787896684467198153,0.04,,,,1787896684467198153,0.4703682335
1787896684474896562,0.052,,,,1787896684474896562,0.4711380744
1787896684482594971,0.04,,,,1787896684482594971,0.4719079153
1787896684490293380,0.012,,,,1787896684490293380,0.4726777562
1787896684497991789,0.0,,,,1787896684497991789,0.4734475971
1787896684505690198,0.0,,,,1787896684505690198,0.474217438
1787896684513388607,-0.026,,,,1787896684513388607,0.4749872789
1787896684521087016,-0.076,,,,1787896684521087016,0.4757571198
1787896684528785425,-0.115,,,,1787896684528785425,0.4765269607
1787896684536483834,-0.134,,,,1787896684536483834,0.4772968016
1787896684544182243,-0.151,,,,1787896684544182243,0.4780666425
1787896684551880652,-0.168,,,,1787896684551880652,0.4788364834
1787896684559579061,-0.189,,,,1787896684559579061,0.4796063243
1787896684567277470,-0.216,,,,1787896684567277470,0.4803761652
1787896684574975879,-0.218,,,,1787896684574975879,0.4811460061
1787896684582674288,-0.209,,,,1787896684582674288,0.481915847
1787896684590372697,-0.211,,,,1787896684590372697,0.4826856879
1787896684598071106,-0.214,,,,1787896684598071106,0.4834555288
1787896684605769515,-0.202,,,,1787896684605769515,0.4842253697
1787896684613467924,-0.202,,,,1787896684613467924,0.4849952106
1787896684621166333,-0.216,,,,1787896684621166333,0.4857650515
1787896684628864742,-0.211,,,,1787896684628864742,0.4865348924
1787896684636563151,-0.206,,,,1787896684636563151,0.4873047333
1787896684644261560,-0.218,,,,1787896684644261560,0.4880745742
1787896684651959969,-0.223,,,,1787896684651959969,0.4888444151
1787896684659658378,-0.221,,,,1787896684659658378,0.489614256
1787896684667356787,-0.228,,,,1787896684667356787,0.4903840969
1787896684675055196,-0.23,,,,1787896684675055196,0.4911539378
1787896684682753605,-0.228,,,,1787896684682753605,0.4919237787
1787896684690452014,-0.233,,,,1787896684690452014,0.4926936196
1787896684698150423,-0.242,,,,1787896684698150423,0.4934634605
1787896684705848832,-0.25,,,,1787896684705848832,0.4942333014
1787896684713547241,-0.254,,,,1787896684713547241,0.4950031423
1787896684721245650,-0.259,,,,1787896684721245650,0.4957729832
1787896684728944059,-0.266,,,,1787896684728944059,0.4965428241
1787896684736642468,-0.274,,,,1787896684736642468,0.497312665
1787896684744340877,-0.283,,,,1787896684744340877,0.4980825059
1787896684752039286,-0.288,,,,1787896684752039286,0.4988523468
1787896684759737695,-0.286,,,,1787896684759737695,0.4996221877
1787896684767436104,-0.286,,,,1787896684767436104,0.5003920286
1787896684775134513,-0.286,,,,1787896684775134513,0.5011618695
1787896684782832922,-0.283,,,,1787896684782832922,0.5019317104
1787896684790531331,-0.278,,,,1787896684790531331,0.5027015513
1787896684798229740,-0.274,,,,1787896684798229740,0.5034713922
1787896684805928149,-0.283,,,,1787896684805928149,0.5042412331
1787896684813626558,-0.293,,,,1787896684813626558,0.505011074
1787896684821324992,-0.286,80.0,901.0,,1787896684821324992,0.5057809174
1787896684829023192,-0.281,,,,1787896684829023192,0.5065507374
1787896684836721392,-0.286,,,,1787896684836721392,0.5073205574
1787896684844419592,-0.288,,,,1787896684844419592,0.5080903774
1787896684852117792,-0.278,,,,1787896684852117792,0.5088601974
1787896684859815992,-0.281,,,,1787896684859815992,0.5096300174
1787896684867514192,-0.29,,,,1787896684867514192,0.5103998374
1787896684875212392,-0.3,,,,1787896684875212392,0.5111696574
1787896684882910592,-0.307,,,,1787896684882910592,0.5119394774
1787896684890608792,-0.317,,,,1787896684890608792,0.5127092974
1787896684898306992,-0.317,,,,1787896684898306992,0.5134791174
1787896684906005192,-0.307,,,,1787896684906005192,0.5142489374
1787896684913703392,-0.29,,,,1787896684913703392,0.5150187574
1787896684921401592,-0.278,,,,1787896684921401592,0.5157885774
1787896684929099792,-0.276,,,,1787896684929099792,0.5165583974
1787896684936797992,-0.271,,,,1787896684936797992,0.5173282174
1787896684944496192,-0.266,,,,1787896684944496192,0.5180980374
1787896684952194392,-0.266,,,,1787896684952194392,0.5188678574
1787896684959892592,-0.274,,,,1787896684959892592,0.5196376774
1787896684967590792,-0.293,,,,1787896684967590792,0.5204074974
1787896684975288992,-0.317,,,,1787896684975288992,0.5211773174
1787896684982987192,-0.322,,,,1787896684982987192,0.5219471374
1787896684990685392,-0.312,,,,1787896684990685392,0.5227169574
1787896684998383592,-0.307,,,,1787896684998383592,0.5234867774
1787896685006081792,-0.307,,,,1787896685006081792,0.5242565974
1787896685013779992,-0.305,,,,1787896685013779992,0.5250264174
1787896685021478192,-0.303,,,,1787896685021478192,0.5257962374
1787896685029176392,-0.319,,,,1787896685029176392,0.5265660574
1787896685036874592,-0.367,,,,1787896685036874592,0.5273358774
1787896685044572792,-0.339,,,,1787896685044572792,0.5281056974
1787896685052270992,-0.016,,,,1787896685052270992,0.5288755174
1787896685059969192,0.514,,,,1787896685059969192,0.5296453374
1787896685067667392,0.663,,,,1787896685067667392,0.5304151574
1787896685075365592,0.004,,,,1787896685075365592,0.5311849774
1787896685083063792,-0.798,,,,1787896685083063792,0.5319547974
1787896685090761992,-0.8320000000000001,,,,1787896685090761992,0.5327246174
1787896685098460192,-0.502,,,,1787896685098460192,0.5334944374
1787896685106158392,-0.454,,,,1787896685106158392,0.5342642574
1787896685113856592,-0.449,,,,1787896685113856592,0.5350340774
1787896685121554792,-0.353,,,,1787896685121554792,0.5358038974
1787896685129252992,-0.331,,,,1787896685129252992,0.5365737174
1787896685136951192,-0.343,,,,1787896685136951192,0.5373435374
1787896685144649392,-0.322,,,,1787896685144649392,0.5381133574
1787896685152347592,-0.312,,,,1787896685152347592,0.5388831774
1787896685160045792,-0.317,,,,1787896685160045792,0.5396529974
1787896685167743992,-0.319,,,,1787896685167743992,0.5404228174
1787896685175442192,-0.31,,,,1787896685175442192,0.5411926374
1787896685183140392,-0.298,,,,1787896685183140392,0.5419624574
1787896685190838592,-0.293,,,,1787896685190838592,0.5427322774
1787896685198536792,-0.286,,,,1787896685198536792,0.5435020974
1787896685206234992,-0.266,,,,1787896685206234992,0.5442719174
1787896685213933192,-0.259,,,,1787896685213933192,0.5450417374
1787896685221631392,-0.259,,,,1787896685221631392,0.5458115574
1787896685229329592,-0.247,,,,1787896685229329592,0.5465813774
1787896685237027792,-0.216,,,,1787896685237027792,0.5473511974
1787896685244725992,-0.192,,,,1787896685244725992,0.5481210174
1787896685252424192,-0.182,,,,1787896685252424192,0.5488908374
1787896685260122392,-0.165,,,,1787896685260122392,0.5496606574
1787896685267820592,-0.141,,,,1787896685267820592,0.5504304774
1787896685275518792,-0.117,,,,1787896685275518792,0.5512002974
1787896685283216992,-0.091,,,,1787896685283216992,0.5519701174
1787896685290915192,-0.081,,,,1787896685290915192,0.5527399374
1787896685298613392,-0.091,,,,1787896685298613392,0.5535097574
1787896685306311592,-0.108,,,,1787896685306311592,0.5542795774
1787896685314009792,-0.115,,,,1787896685314009792,0.5550493974
1787896685321707992,-0.122,,,,1787896685321707992,0.5558192174
1787896685329406192,-0.153,,,,1787896685329406192,0.5565890374
1787896685337104392,-0.194,,,,1787896685337104392,0.5573588574
1787896685344802592,-0.221,,,,1787896685344802592,0.5581286774
1787896685352500792,-0.257,,,,1787896685352500792,0.5588984974
1787896685360198992,-0.303,,,,1787896685360198992,0.5596683174
1787896685367897192,-0.331,,,,1787896685367897192,0.5604381374
1787896685375595392,-0.348,,,,1787896685375595392,0.5612079574
1787896685383293616,-0.372,,,,1787896685383293616,0.5619777798
1787896685390991816,-0.382,,,,1787896685390991816,0.5627475998
1787896685398690016,-0.375,,,,1787896685398690016,0.5635174198
1787896685406388216,-0.382,,,,1787896685406388216,0.5642872398
1787896685414086416,-0.389,,,,1787896685414086416,0.5650570598
1787896685421784616,-0.367,,,,1787896685421784616,0.5658268798
1787896685429482816,-0.351,,,,1787896685429482816,0.5665966998
1787896685437181016,-0.358,,,,1787896685437181016,0.5673665198
1787896685444879216,-0.358,,,,1787896685444879216,0.5681363398
1787896685452577416,-0.334,,,,1787896685452577416,0.5689061598
1787896685460275616,-0.327,,,,1787896685460275616,0.5696759798
1787896685467973816,-0.341,,,,1787896685467973816,0.5704457998
1787896685475672016,-0.334,,,,1787896685475672016,0.5712156198
1787896685483370216,-0.319,,,,1787896685483370216,0.5719854398
1787896685491068416,-0.322,,,,1787896685491068416,0.5727552598
1787896685498766616,-0.327,,,,1787896685498766616,0.5735250798
1787896685506464816,-0.322,,,,1787896685506464816,0.5742948998
1787896685514163016,-0.315,,,,1787896685514163016,0.5750647198
1787896685521861216,-0.315,,,,1787896685521861216,0.5758345398
1787896685529559416,-0.322,,,,1787896685529559416,0.5766043598
1787896685537257616,-0.327,,,,1787896685537257616,0.5773741798
1787896685544955816,-0.334,,,,1787896685544955816,0.5781439998
1787896685552654016,-0.334,,,,1787896685552654016,0.5789138198
1787896685560352216,-0.327,,,,1787896685560352216,0.5796836398
1787896685568050416,-0.336,,,,1787896685568050416,0.5804534598
1787896685575748616,-0.334,,,,1787896685575748616,0.5812232798
1787896685583446816,-0.315,,,,1787896685583446816,0.5819930998
1787896685591145016,-0.317,,,,1787896685591145016,0.5827629198
1787896685598843216,-0.327,,,,1787896685598843216,0.5835327398
1787896685606541416,-0.327,,,,1787896685606541416,0.5843025598
1787896685614239616,-0.331,,,,1787896685614239616,0.5850723798
1787896685621937816,-0.331,,,,1787896685621937816,0.5858421998
1787896685629636016,-0.322,,,,1787896685629636016,0.5866120198
1787896685637334216,-0.317,,,,1787896685637334216,0.5873818398
1787896685645032416,-0.312,,,,1787896685645032416,0.5881516598
1787896685652730616,-0.307,,,,1787896685652730616,0.5889214798
1787896685660428816,-0.305,,,,1787896685660428816,0.5896912998
1787896685668127016,-0.303,,,,1787896685668127016,0.5904611198
1787896685675825216,-0.295,,,,1787896685675825216,0.5912309398
1787896685683523416,-0.281,,,,1787896685683523416,0.5920007598
1787896685691221616,-0.274,,,,1787896685691221616,0.5927705798
1787896685698919816,-0.269,,,,1787896685698919816,0.5935403998
1787896685706618016,-0.274,,,,1787896685706618016,0.5943102198
1787896685714316216,-0.283,,,,1787896685714316216,0.5950800398
1787896685722014416,-0.29,,,,1787896685722014416,0.5958498598
1787896685729712616,-0.295,,,,1787896685729712616,0.5966196798
1787896685737410816,-0.293,,,,1787896685737410816,0.5973894998
1787896685745109016,-0.276,,,,1787896685745109016,0.5981593198
1787896685752807216,-0.266,,,,1787896685752807216,0.5989291398
1787896685760505416,-0.269,,,,1787896685760505416,0.5996989598
1787896685768203616,-0.271,,,,1787896685768203616,0.6004687798
1787896685775901816,-0.266,,,,1787896685775901816,0.6012385998
1787896685783600016,-0.298,,,,1787896685783600016,0.6020084198
1787896685791298216,-0.327,,,,1787896685791298216,0.6027782398
1787896685798996416,-0.11,,,,1787896685798996416,0.6035480598
1787896685806694616,0.456,,,,1787896685806694616,0.6043178798
1787896685814392816,0.882,,,,1787896685814392816,0.6050876998
1787896685822091016,0.459,,,,1787896685822091016,0.6058575198
1787896685829789216,-0.529,,,,1787896685829789216,0.6066273398
1787896685837487416,-0.906,,,,1787896685837487416,0.6073971598
1787896685845185616,-0.5670000000000001,,,,1787896685845185616,0.6081669798
1787896685852883816,-0.379,,,,1787896685852883816,0.6089367998
1787896685860582016,-0.394,,,,1787896685860582016,0.6097066198
1787896685868280216,-0.303,,,,1787896685868280216,0.6104764398
1787896685875978416,-0.235,,,,1787896685875978416,0.6112462598
1787896685883676616,-0.238,,,,1787896685883676616,0.6120160798
1787896685891374816,-0.223,,,,1787896685891374816,0.6127858998
1787896685899073016,-0.206,,,,1787896685899073016,0.6135557198
1787896685906771216,-0.206,,,,1787896685906771216,0.6143255398
1787896685914469416,-0.202,,,,1787896685914469416,0.6150953598
1787896685922167616,-0.189,,,,1787896685922167616,0.6158651798
1787896685929865816,-0.189,,,,1787896685929865816,0.6166349998
1787896685937564016,-0.192,,,,1787896685937564016,0.6174048198
1787896685945262242,-0.18,79.0,938.0,,1787896685945262242,0.6181746424
1787896685952960442,-0.163,,,,1787896685952960442,0.6189444624
1787896685960658642,-0.156,,,,1787896685960658642,0.6197142824
1787896685968356842,-0.144,,,,1787896685968356842,0.6204841024
1787896685976055042,-0.129,,,,1787896685976055042,0.6212539224
1787896685983753242,-0.117,,,,1787896685983753242,0.6220237424
1787896685991451442,-0.103,,,,1787896685991451442,0.6227935624
1787896685999149642,-0.076,,,,1787896685999149642,0.6235633824
1787896686006847842,-0.045,,,,1787896686006847842,0.6243332024
1787896686014546042,-0.021,,,,1787896686014546042,0.6251030224
1787896686022244242,0.0,,,,1787896686022244242,0.6258728424
1787896686029942442,0.016,,,,1787896686029942442,0.6266426624
1787896686037640642,0.031,,,,1787896686037640642,0.6274124824
1787896686045338842,0.036,,,,1787896686045338842,0.6281823024
1787896686053037042,0.016,,,,1787896686053037042,0.6289521224
1787896686060735242,-0.012,,,,1787896686060735242,0.6297219424
1787896686068433442,-0.038,,,,1787896686068433442,0.6304917624
1787896686076131642,-0.062,,,,1787896686076131642,0.6312615824
1787896686083829842,-0.096,,,,1787896686083829842,0.6320314024
1787896686091528042,-0.144,,,,1787896686091528042,0.6328012224
1787896686099226242,-0.189,,,,1787896686099226242,0.6335710424
1787896686106924442,-0.223,,,,1787896686106924442,0.6343408624
1787896686114622642,-0.252,,,,1787896686114622642,0.6351106824
1787896686122320842,-0.276,,,,1787896686122320842,0.6358805024
1787896686130019042,-0.293,,,,1787896686130019042,0.6366503224
1787896686137717242,-0.3,,,,1787896686137717242,0.6374201424
1787896686145415442,-0.303,,,,1787896686145415442,0.6381899624
1787896686153113642,-0.303,,,,1787896686153113642,0.6389597824
1787896686160811842,-0.295,,,,1787896686160811842,0.6397296024
1787896686168510042,-0.295,,,,1787896686168510042,0.6404994224
1787896686176208242,-0.293,,,,1787896686176208242,0.6412692424
1787896686183906442,-0.281,,,,1787896686183906442,0.6420390624
1787896686191604642,-0.264,,,,1787896686191604642,0.6428088824
1787896686199302842,-0.266,,,,1787896686199302842,0.6435787024
1787896686207001042,-0.271,,,,1787896686207001042,0.6443485224
1787896686214699242,-0.262,,,,1787896686214699242,0.6451183424
1787896686222397442,-0.245,,,,1787896686222397442,0.6458881624
1787896686230095642,-0.25,,,,1787896686230095642,0.6466579824
1787896686237793842,-0.254,,,,1787896686237793842,0.6474278024
1787896686245492042,-0.247,,,,1787896686245492042,0.6481976224
1787896686253190242,-0.245,,,,1787896686253190242,0.6489674424
1787896686260888442,-0.247,,,,1787896686260888442,0.6497372624
1787896686268586642,-0.247,,,,1787896686268586642,0.6505070824
1787896686276284842,-0.247,,,,1787896686276284842,0.6512769024
1787896686283983042,-0.252,,,,1787896686283983042,0.6520467224
1787896686291681242,-0.259,,,,1787896686291681242,0.6528165424
1787896686299379442,-0.262,,,,1787896686299379442,0.6535863624
1787896686307077642,-0.266,,,,1787896686307077642,0.6543561824
1787896686314775842,-0.262,,,,1787896686314775842,0.6551260024
1787896686322474042,-0.252,,,,1787896686322474042,0.6558958224
1787896686330172242,-0.254,,,,1787896686330172242,0.6566656424
1787896686337870442,-0.262,,,,1787896686337870442,0.6574354624
1787896686345568642,-0.264,,,,1787896686345568642,0.6582052824
1787896686353266842,-0.264,,,,1787896686353266842,0.6589751024
1787896686360965042,-0.254,,,,1787896686360965042,0.6597449224
1787896686368663242,-0.25,,,,1787896686368663242,0.6605147424
1787896686376361442,-0.242,,,,1787896686376361442,0.6612845624
1787896686384059642,-0.233,,,,1787896686384059642,0.6620543824
1787896686391757842,-0.221,,,,1787896686391757842,0.6628242024
1787896686399456042,-0.209,,,,1787896686399456042,0.6635940224
1787896686407154242,-0.211,,,,1787896686407154242,0.6643638424
1787896686414852442,-0.228,,,,1787896686414852442,0.6651336624
1787896686422550642,-0.238,,,,1787896686422550642,0.6659034824
1787896686430248842,-0.242,,,,1787896686430248842,0.6666733024
1787896686437947042,-0.242,,,,1787896686437947042,0.6674431224
1787896686445645242,-0.245,,,,1787896686445645242,0.6682129424
1787896686453343442,-0.245,,,,1787896686453343442,0.6689827624
1787896686461041642,-0.24,,,,1787896686461041642,0.6697525824
1787896686468739842,-0.235,,,,1787896686468739842,0.6705224024
1787896686476438042,-0.233,,,,1787896686476438042,0.6712922224
1787896686484136242,-0.247,,,,1787896686484136242,0.6720620424
1787896686491834442,-0.298,,,,1787896686491834442,0.6728318624
1787896686499532642,-0.283,,,,1787896686499532642,0.6736016824
1787896686507230868,0.05,77.0,868.0,,1787896686507230868,0.674371505
1787896686514929347,0.67,,825.0,,1787896686514929347,0.6751413529
1787896686522627826,0.937,,,,1787896686522627826,0.6759112008
1787896686530326305,0.266,,,,1787896686530326305,0.6766810487
1787896686538024784,-0.733,,,,1787896686538024784,0.6774508966
1787896686545723263,-0.875,,,,1787896686545723263,0.6782207445
1787896686553421742,-0.44,,,,1787896686553421742,0.6789905924
1787896686561120221,-0.339,,,,1787896686561120221,0.6797604403
1787896686568818700,-0.372,,,,1787896686568818700,0.6805302882
1787896686576517179,-0.262,,,,1787896686576517179,0.6813001361
1787896686584215658,-0.216,,,,1787896686584215658,0.682069984
1787896686591914137,-0.238,,,,1787896686591914137,0.6828398319
1787896686599612616,-0.218,,,,1787896686599612616,0.6836096798
1787896686607311095,-0.199,,,,1787896686607311095,0.6843795277
1787896686615009574,-0.204,,,,1787896686615009574,0.6851493756
1787896686622708053,-0.202,,,,1787896686622708053,0.6859192235
1787896686630406532,-0.192,,,,1787896686630406532,0.6866890714
1787896686638105011,-0.187,,,,1787896686638105011,0.6874589193
1787896686645803490,-0.18,,,,1787896686645803490,0.6882287672
1787896686653501969,-0.17,,,,1787896686653501969,0.6889986151
1787896686661200448,-0.161,,,,1787896686661200448,0.689768463
1787896686668898927,-0.149,,,,1787896686668898927,0.6905383109
1787896686676597406,-0.132,,,,1787896686676597406,0.6913081588
1787896686684295885,-0.117,,,,1787896686684295885,0.6920780067
1787896686691994364,-0.101,,,,1787896686691994364,0.6928478546
1787896686699692843,-0.076,,,,1787896686699692843,0.6936177025
1787896686707391322,-0.055,,,,1787896686707391322,0.6943875504
1787896686715089801,-0.031,,,,1787896686715089801,0.6951573983
1787896686722788280,-0.004,,,,1787896686722788280,0.6959272462
1787896686730486759,0.019,,,,1787896686730486759,0.6966970941
1787896686738185238,0.038,,,,1787896686738185238,0.697466942
1787896686745883717,0.05,,,,1787896686745883717,0.6982367899
1787896686753582196,0.052,,,,1787896686753582196,0.6990066378
1787896686761280675,0.036,,,,1787896686761280675,0.6997764857
1787896686768979154,0.014,,,,1787896686768979154,0.7005463336
1787896686776677633,-0.002,,,,1787896686776677633,0.7013161815
1787896686784376112,-0.028,,,,1787896686784376112,0.7020860294
1787896686792074591,-0.069,,,,1787896686792074591,0.7028558773
1787896686799773070,-0.105,,,,1787896686799773070,0.7036257252
1787896686807471549,-0.146,,,,1787896686807471549,0.7043955731
1787896686815170028,-0.185,,,,1787896686815170028,0.705165421
1787896686822868507,-0.202,,,,1787896686822868507,0.7059352689
1787896686830566986,-0.214,,,,1787896686830566986,0.7067051168
1787896686838265465,-0.228,,,,1787896686838265465,0.7074749647
1787896686845963944,-0.238,,,,1787896686845963944,0.7082448126
1787896686853662423,-0.235,,,,1787896686853662423,0.7090146605
1787896686861360902,-0.233,,,,1787896686861360902,0.7097845084
1787896686869059381,-0.23,,,,1787896686869059381,0.7105543563
1787896686876757860,-0.223,,,,1787896686876757860,0.7113242042
1787896686884456339,-0.214,,,,1787896686884456339,0.7120940521
1787896686892154818,-0.204,,,,1787896686892154818,0.7128639
1787896686899853297,-0.199,,,,1787896686899853297,0.7136337479
1787896686907551776,-0.199,,,,1787896686907551776,0.7144035958
1787896686915250255,-0.199,,,,1787896686915250255,0.7151734437
1787896686922948734,-0.192,,,,1787896686922948734,0.7159432916
1787896686930647213,-0.187,,,,1787896686930647213,0.7167131395
1787896686938345692,-0.185,,,,1787896686938345692,0.7174829874
1787896686946044171,-0.187,,,,1787896686946044171,0.7182528353
1787896686953742650,-0.187,,,,1787896686953742650,0.7190226832
1787896686961441129,-0.189,,,,1787896686961441129,0.7197925311
1787896686969139608,-0.194,,,,1787896686969139608,0.720562379
1787896686976838087,-0.194,,,,1787896686976838087,0.7213322269
1787896686984536566,-0.187,,,,1787896686984536566,0.7221020748
1787896686992235045,-0.189,,,,1787896686992235045,0.7228719227
1787896686999933524,-0.197,,,,1787896686999933524,0.7236417706
1787896687007632003,-0.202,,,,1787896687007632003,0.7244116185
1787896687015330482,-0.199,,,,1787896687015330482,0.7251814664
1787896687023028961,-0.197,,,,1787896687023028961,0.7259513143
1787896687030727440,-0.202,,,,1787896687030727440,0.7267211622
1787896687038425919,-0.209,,,,1787896687038425919,0.7274910101
1787896687046124398,-0.214,,,,1787896687046124398,0.728260858
1787896687053822877,-0.216,,,,1787896687053822877,0.7290307059
1787896687061521356,-0.216,,,,1787896687061521356,0.7298005538
1787896687069219838,-0.214,,,,1787896687069219838,0.730570402
1787896687076918177,-0.211,,,,1787896687076918177,0.7313402359
1787896687084616516,-0.214,,,,1787896687084616516,0.7321100698
1787896687092314855,-0.218,,,,1787896687092314855,0.7328799037
1787896687100013194,-0.226,,,,1787896687100013194,0.7336497376
1787896687107711533,-0.235,,,,1787896687107711533,0.7344195715
1787896687115409872,-0.226,,,,1787896687115409872,0.7351894054
1787896687123108211,-0.204,,,,1787896687123108211,0.7359592393
1787896687130806550,-0.192,,,,1787896687130806550,0.7367290732
1787896687138504889,-0.194,,,,1787896687138504889,0.7374989071
1787896687146203228,-0.194,,,,1787896687146203228,0.738268741
1787896687153901567,-0.173,,,,1787896687153901567,0.7390385749
1787896687161599906,-0.163,,,,1787896687161599906,0.7398084088
1787896687169298245,-0.177,,,,1787896687169298245,0.7405782427
1787896687176996584,-0.197,,,,1787896687176996584,0.7413480766
1787896687184694923,-0.206,,,,1787896687184694923,0.7421179105
1787896687192393262,-0.211,,,,1787896687192393262,0.7428877444
1787896687200091601,-0.202,,,,1787896687200091601,0.7436575783
1787896687207789940,-0.199,,,,1787896687207789940,0.7444274122
1787896687215488279,-0.202,,,,1787896687215488279,0.7451972461
1787896687223186618,-0.199,,,,1787896687223186618,0.74596708
1787896687230884957,-0.189,,,,1787896687230884957,0.7467369139
1787896687238583296,-0.194,,,,1787896687238583296,0.7475067478
1787896687246281635,-0.242,,,,1787896687246281635,0.7482765817
1787896687253979974,-0.254,,,,1787896687253979974,0.7490464156
1787896687261678313,0.026,,,,1787896687261678313,0.7498162495
1787896687269376652,0.598,,,,1787896687269376652,0.7505860834
1787896687277074991,0.954,,,,1787896687277074991,0.7513559173
1787896687284773330,0.492,,,,1787896687284773330,0.7521257512
1787896687292471669,-0.526,,,,1787896687292471669,0.7528955851
1787896687300170008,-0.899,,,,1787896687300170008,0.753665419
1787896687307868347,-0.473,,,,1787896687307868347,0.7544352529
1787896687315566686,-0.262,,,,1787896687315566686,0.7552050868
1787896687323265025,-0.336,,,,1787896687323265025,0.7559749207
1787896687330963364,-0.262,,,,1787896687330963364,0.7567447546
1787896687338661703,-0.175,,,,1787896687338661703,0.7575145885
1787896687346360042,-0.214,,,,1787896687346360042,0.7582844224
1787896687354058381,-0.218,,,,1787896687354058381,0.7590542563
1787896687361756720,-0.182,,,,1787896687361756720,0.7598240902
1787896687369455059,-0.18,,,,1787896687369455059,0.7605939241
1787896687377153398,-0.187,,,,1787896687377153398,0.761363758
1787896687384851737,-0.175,,,,1787896687384851737,0.7621335919
1787896687392550076,-0.168,,,,1787896687392550076,0.7629034258
1787896687400248415,-0.168,,,,1787896687400248415,0.7636732597
1787896687407946754,-0.158,,,,1787896687407946754,0.7644430936
1787896687415645093,-0.144,,,,1787896687415645093,0.7652129275
1787896687423343432,-0.137,,,,1787896687423343432,0.7659827614
1787896687431041771,-0.127,,,,1787896687431041771,0.7667525953
1787896687438740110,-0.113,,,,1787896687438740110,0.7675224292
1787896687446438449,-0.101,,,,1787896687446438449,0.7682922631
1787896687454136788,-0.084,,,,1787896687454136788,0.769062097
1787896687461835127,-0.06,,,,1787896687461835127,0.7698319309
1787896687469533466,-0.033,,,,1787896687469533466,0.7706017648
1787896687477231805,-0.009,,,,1787896687477231805,0.7713715987
1787896687484930144,0.009,,,,1787896687484930144,0.7721414326
1787896687492628483,0.021,,,,1787896687492628483,0.7729112665
1787896687500326822,0.028,,,,1787896687500326822,0.7736811004
1787896687508025161,0.026,,,,1787896687508025161,0.7744509343
1787896687515723500,0.016,,,,1787896687515723500,0.7752207682
1787896687523421839,0.0,,,,1787896687523421839,0.7759906021
1787896687531120178,-0.012,,,,1787896687531120178,0.776760436
1787896687538818517,-0.024,,,,1787896687538818517,0.7775302699
1787896687546516856,-0.05,,,,1787896687546516856,0.7783001038
1787896687554215195,-0.084,,,,1787896687554215195,0.7790699377
1787896687561913534,-0.122,,,,1787896687561913534,0.7798397716
1787896687569611873,-0.156,,,,1787896687569611873,0.7806096055
1787896687577310212,-0.18,,,,1787896687577310212,0.7813794394
1787896687585008551,-0.202,,,,1787896687585008551,0.7821492733
1787896687592706890,-0.218,,,,1787896687592706890,0.7829191072
1787896687600405229,-0.226,,,,1787896687600405229,0.7836889411
1787896687608103568,-0.233,,,,1787896687608103568,0.784458775
1787896687615801907,-0.228,,,,1787896687615801907,0.7852286089
1787896687623500246,-0.218,,,,1787896687623500246,0.7859984428
1787896687631198634,-0.218,76.0,750.0,,1787896687631198634,0.7867682816
1787896687638896973,-0.211,,,,1787896687638896973,0.7875381155
1787896687646595312,-0.204,,,,1787896687646595312,0.7883079494
1787896687654293651,-0.197,,,,1787896687654293651,0.7890777833
1787896687661991990,-0.192,,,,1787896687661991990,0.7898476172
1787896687669690329,-0.189,,,,1787896687669690329,0.7906174511
1787896687677388668,-0.185,,,,1787896687677388668,0.791387285
1787896687685087007,-0.175,,,,1787896687685087007,0.7921571189
1787896687692785346,-0.165,,,,1787896687692785346,0.7929269528
1787896687700483685,-0.168,,,,1787896687700483685,0.7936967867
1787896687708182024,-0.18,,,,1787896687708182024,0.7944666206
1787896687715880363,-0.177,,,,1787896687715880363,0.7952364545
1787896687723578702,-0.173,,,,1787896687723578702,0.7960062884
1787896687731277041,-0.173,,,,1787896687731277041,0.7967761223
1787896687738975380,-0.173,,,,1787896687738975380,0.7975459562
1787896687746673719,-0.185,,,,1787896687746673719,0.7983157901
1787896687754372058,-0.194,,,,1787896687754372058,0.799085624
1787896687762070397,-0.194,,,,1787896687762070397,0.7998554579
1787896687769768736,-0.197,,,,1787896687769768736,0.8006252918
1787896687777467075,-0.202,,,,1787896687777467075,0.8013951257
1787896687785165414,-0.204,,,,1787896687785165414,0.8021649596
1787896687792863753,-0.206,,,,1787896687792863753,0.8029347935
1787896687800562092,-0.206,,,,1787896687800562092,0.8037046274
1787896687808260431,-0.209,,,,1787896687808260431,0.8044744613
1787896687815958770,-0.204,,,,1787896687815958770,0.8052442952
1787896687823657109,-0.206,,,,1787896687823657109,0.8060141291
1787896687831355448,-0.214,,,,1787896687831355448,0.806783963
1787896687839053787,-0.206,,,,1787896687839053787,0.8075537969
1787896687846752126,-0.202,,,,1787896687846752126,0.8083236308
1787896687854450465,-0.202,,,,1787896687854450465,0.8090934647
1787896687862148804,-0.197,,,,1787896687862148804,0.8098632986
1787896687869847143,-0.197,,,,1787896687869847143,0.8106331325
1787896687877545482,-0.204,,,,1787896687877545482,0.8114029664
1787896687885243821,-0.206,,,,1787896687885243821,0.8121728003
1787896687892942160,-0.202,,,,1787896687892942160,0.8129426342
1787896687900640499,-0.202,,,,1787896687900640499,0.8137124681
1787896687908338838,-0.206,,,,1787896687908338838,0.814482302
1787896687916037177,-0.206,,,,1787896687916037177,0.8152521359
1787896687923735516,-0.206,,,,1787896687923735516,0.8160219698
1787896687931433855,-0.209,,,,1787896687931433855,0.8167918037
1787896687939132194,-0.204,,,,1787896687939132194,0.8175616376
1787896687946830533,-0.204,,,,1787896687946830533,0.8183314715
1787896687954528872,-0.209,,,,1787896687954528872,0.8191013054
1787896687962227211,-0.209,,,,1787896687962227211,0.8198711393
1787896687969925550,-0.216,,,,1787896687969925550,0.8206409732
1787896687977623889,-0.218,,,,1787896687977623889,0.8214108071
1787896687985322228,-0.214,,,,1787896687985322228,0.822180641
1787896687993020567,-0.206,,,,1787896687993020567,0.8229504749
1787896688000718906,-0.202,,,,1787896688000718906,0.8237203088
1787896688008417245,-0.199,,,,1787896688008417245,0.8244901427
1787896688016115584,-0.189,,,,1787896688016115584,0.8252599766
1787896688023813923,-0.182,,,,1787896688023813923,0.8260298105
1787896688031512262,-0.185,,,,1787896688031512262,0.8267996444
1787896688039210601,-0.192,,,,1787896688039210601,0.8275694783
1787896688046908940,-0.209,,,,1787896688046908940,0.8283393122
1787896688054607279,-0.226,,,,1787896688054607279,0.8291091461
1787896688062305618,-0.23,,,,1787896688062305618,0.82987898
1787896688070003957,-0.223,,,,1787896688070003957,0.8306488139
1787896688077702296,-0.221,,,,1787896688077702296,0.8314186478
1787896688085400635,-0.23,,,,1787896688085400635,0.8321884817
1787896688093098974,-0.23,,,,1787896688093098974,0.8329583156
1787896688100797313,-0.223,,,,1787896688100797313,0.8337281495
1787896688108495652,-0.24,,,,1787896688108495652,0.8344979834
1787896688116193991,-0.29,,,,1787896688116193991,0.8352678173
1787896688123892330,-0.295,,,,1787896688123892330,0.8360376512
1787896688131590669,-0.036,,,,1787896688131590669,0.8368074851
1787896688139289008,0.492,,,,1787896688139289008,0.837577319
1787896688146987347,0.812,,,,1787896688146987347,0.8383471529
1787896688154685686,0.355,,,,1787896688154685686,0.8391169868
1787896688162384025,-0.579,,,,1787896688162384025,0.8398868207
1787896688170082364,-0.88,,,,1787896688170082364,0.8406566546
1787896688177780703,-0.505,,,,1787896688177780703,0.8414264885
1787896688185479042,-0.351,,,,1787896688185479042,0.8421963224
1787896688193177432,-0.416,,,,1787896688193177432,0.8429661614
1787896688200875911,-0.346,,,,1787896688200875911,0.8437360093
1787896688208574390,-0.283,,,,1787896688208574390,0.8445058572
1787896688216272869,-0.303,,,,1787896688216272869,0.8452757051
1787896688223971348,-0.3,,,,1787896688223971348,0.846045553
1787896688231669827,-0.283,,,,1787896688231669827,0.8468154009
1787896688239368306,-0.29,,,,1787896688239368306,0.8475852488
1787896688247066785,-0.288,,,,1787896688247066785,0.8483550967
1787896688254765264,-0.266,,,,1787896688254765264,0.8491249446
1787896688262463743,-0.259,,,,1787896688262463743,0.8498947925
1787896688270162222,-0.269,,,,1787896688270162222,0.8506646404
1787896688277860701,-0.266,,,,1787896688277860701,0.8514344883
1787896688285559180,-0.252,,,,1787896688285559180,0.8522043362
1787896688293257659,-0.238,,,,1787896688293257659,0.8529741841
1787896688300956138,-0.226,,,,1787896688300956138,0.853744032
1787896688308654617,-0.218,,,,1787896688308654617,0.8545138799
1787896688316353096,-0.206,,,,1787896688316353096,0.8552837278
1787896688324051575,-0.192,,,,1787896688324051575,0.8560535757
1787896688331750054,-0.175,,,,1787896688331750054,0.8568234236
1787896688339448533,-0.151,,,,1787896688339448533,0.8575932715
1787896688347147012,-0.127,,,,1787896688347147012,0.8583631194
1787896688354845491,-0.103,,,,1787896688354845491,0.8591329673
1787896688362543970,-0.088,,,,1787896688362543970,0.8599028152
1787896688370242449,-0.086,,,,1787896688370242449,0.8606726631
1787896688377940928,-0.084,,,,1787896688377940928,0.861442511
1787896688385639407,-0.093,,,,1787896688385639407,0.8622123589
1787896688393337886,-0.108,,,,1787896688393337886,0.8629822068
1787896688401036365,-0.125,,,,1787896688401036365,0.8637520547
1787896688408734844,-0.139,,,,1787896688408734844,0.8645219026
1787896688416433323,-0.153,,,,1787896688416433323,0.8652917505
1787896688424131802,-0.185,,,,1787896688424131802,0.8660615984
1787896688431830281,-0.233,,,,1787896688431830281,0.8668314463
1787896688439528760,-0.264,,,,1787896688439528760,0.8676012942
1787896688447227239,-0.29,,,,1787896688447227239,0.8683711421
1787896688454925718,-0.315,,,,1787896688454925718,0.86914099
1787896688462624197,-0.329,,,,1787896688462624197,0.8699108379
1787896688470322676,-0.348,,,,1787896688470322676,0.8706806858
1787896688478021155,-0.355,,,,1787896688478021155,0.8714505337
1787896688485719634,-0.351,,,,1787896688485719634,0.8722203816
1787896688493418113,-0.334,,,,1787896688493418113,0.8729902295
1787896688501116592,-0.324,,,,1787896688501116592,0.8737600774
1787896688508815071,-0.334,,,,1787896688508815071,0.8745299253
1787896688516513550,-0.334,,,,1787896688516513550,0.8752997732
1787896688524212029,-0.327,,,,1787896688524212029,0.8760696211
1787896688531910508,-0.322,,,,1787896688531910508,0.876839469
1787896688539608987,-0.319,,,,1787896688539608987,0.8776093169
1787896688547307466,-0.317,,,,1787896688547307466,0.8783791648
1787896688555005945,-0.322,,,,1787896688555005945,0.8791490127
1787896688562704424,-0.322,,,,1787896688562704424,0.8799188606
1787896688570402903,-0.312,,,,1787896688570402903,0.8806887085
1787896688578101382,-0.305,,,,1787896688578101382,0.8814585564
1787896688585799861,-0.315,,,,1787896688585799861,0.8822284043
1787896688593498340,-0.327,,,,1787896688593498340,0.8829982522
1787896688601196819,-0.331,,,,1787896688601196819,0.8837681001
1787896688608895298,-0.331,,,,1787896688608895298,0.884537948
1787896688616593777,-0.329,,,,1787896688616593777,0.8853077959
1787896688624292256,-0.339,,,,1787896688624292256,0.8860776438
1787896688631990735,-0.346,,,,1787896688631990735,0.8868474917
1787896688639689214,-0.343,,,,1787896688639689214,0.8876173396
1787896688647387693,-0.341,,,,1787896688647387693,0.8883871875
1787896688655086172,-0.334,,,,1787896688655086172,0.8891570354
1787896688662784651,-0.331,,,,1787896688662784651,0.8899268833
1787896688670483130,-0.343,,,,1787896688670483130,0.8906967312
1787896688678181609,-0.353,,,,1787896688678181609,0.8914665791
1787896688685880088,-0.346,,,,1787896688685880088,0.892236427
1787896688693578567,-0.336,,,,1787896688693578567,0.8930062749
1787896688701277046,-0.336,,,,1787896688701277046,0.8937761228
1787896688708975525,-0.341,,,,1787896688708975525,0.8945459707
1787896688716674004,-0.331,,,,1787896688716674004,0.8953158186
1787896688724372483,-0.327,,,,1787896688724372483,0.8960856665
1787896688732070962,-0.324,,,,1787896688732070962,0.8968555144
1787896688739769441,-0.319,,,,1787896688739769441,0.8976253623
1787896688747467920,-0.322,,,,1787896688747467920,0.8983952102
1787896688755166400,-0.329,76.0,706.0,,1787896688755166400,0.8991650582
1787896688762864600,-0.329,,,,1787896688762864600,0.8999348782
1787896688770562800,-0.319,,,,1787896688770562800,0.9007046982
1787896688778261000,-0.312,,,,1787896688778261000,0.9014745182
1787896688785959200,-0.31,,,,1787896688785959200,0.9022443382
1787896688793657400,-0.307,,,,1787896688793657400,0.9030141582
1787896688801355600,-0.315,,,,1787896688801355600,0.9037839782
1787896688809053800,-0.312,,,,1787896688809053800,0.9045537982
1787896688816752000,-0.295,,,,1787896688816752000,0.9053236182
1787896688824450200,-0.29,,,,1787896688824450200,0.9060934382
1787896688832148400,-0.3,,,,1787896688832148400,0.9068632582
1787896688839846600,-0.298,,,,1787896688839846600,0.9076330782
1787896688847544800,-0.288,,,,1787896688847544800,0.9084028982
1787896688855243000,-0.283,,,,1787896688855243000,0.9091727182
1787896688862941200,-0.278,,,,1787896688862941200,0.9099425382
1787896688870639400,-0.266,,,,1787896688870639400,0.9107123582
1787896688878337600,-0.259,,,,1787896688878337600,0.9114821782
1787896688886035800,-0.269,,,,1787896688886035800,0.9122519982
1787896688893734000,-0.266,,,,1787896688893734000,0.9130218182
1787896688901432200,-0.242,,,,1787896688901432200,0.9137916382
1787896688909130400,-0.233,,,,1787896688909130400,0.9145614582
1787896688916828600,-0.242,,,,1787896688916828600,0.9153312782
1787896688924526800,-0.259,,,,1787896688924526800,0.9161010982
1787896688932225000,-0.274,,,,1787896688932225000,0.9168709182
1787896688939923200,-0.278,,,,1787896688939923200,0.9176407382
1787896688947621400,-0.276,,,,1787896688947621400,0.9184105582
1787896688955319600,-0.269,,,,1787896688955319600,0.9191803782
1787896688963017800,-0.264,,,,1787896688963017800,0.9199501982
1787896688970716000,-0.264,,,,1787896688970716000,0.9207200182
1787896688978414200,-0.252,,,,1787896688978414200,0.9214898382
1787896688986112400,-0.25,,,,1787896688986112400,0.9222596582
1787896688993810600,-0.271,,,,1787896688993810600,0.9230294782
1787896689001508800,-0.317,,,,1787896689001508800,0.9237992982
1787896689009207000,-0.197,,,,1787896689009207000,0.9245691182
1787896689016905200,0.312,,,,1787896689016905200,0.9253389382
1787896689024603400,0.858,,,,1787896689024603400,0.9261087582
1787896689032301600,0.646,,,,1787896689032301600,0.9268785782
1787896689039999800,-0.353,,,,1787896689039999800,0.9276483982
1787896689047698000,-0.959,,,,1787896689047698000,0.9284182182
1787896689055396200,-0.649,,,,1787896689055396200,0.9291880382
1787896689063094400,-0.36,,,,1787896689063094400,0.9299578582
1787896689070792600,-0.406,,,,1787896689070792600,0.9307276782
1787896689078490800,-0.339,,,,1787896689078490800,0.9314974982
1787896689086189000,-0.24,,,,1787896689086189000,0.9322673182
1787896689093887200,-0.259,,,,1787896689093887200,0.9330371382
1787896689101585400,-0.262,,,,1787896689101585400,0.9338069582
1787896689109283600,-0.226,,,,1787896689109283600,0.9345767782
1787896689116981800,-0.209,,,,1787896689116981800,0.9353465982
1787896689124680000,-0.202,,,,1787896689124680000,0.9361164182
1787896689132378200,-0.194,,,,1787896689132378200,0.9368862382
1787896689140076400,-0.199,,,,1787896689140076400,0.9376560582
1787896689147774600,-0.197,,,,1787896689147774600,0.9384258782
1787896689155472800,-0.177,,,,1787896689155472800,0.9391956982
1787896689163171000,-0.17,,,,1787896689163171000,0.9399655182
1787896689170869200,-0.161,,,,1787896689170869200,0.9407353382
1787896689178567400,-0.146,,,,1787896689178567400,0.9415051582
1787896689186265600,-0.146,,,,1787896689186265600,0.9422749782
1787896689193963800,-0.137,,,,1787896689193963800,0.9430447982
1787896689201662000,-0.103,,,,1787896689201662000,0.9438146182
1787896689209360200,-0.076,,,,1787896689209360200,0.9445844382
1787896689217058400,-0.06,,,,1787896689217058400,0.9453542582
1787896689224756600,-0.04,,,,1787896689224756600,0.9461240782
1787896689232454800,-0.014,,,,1787896689232454800,0.9468938982
1787896689240153000,0.012,,,,1787896689240153000,0.9476637182
1787896689247851200,0.021,,,,1787896689247851200,0.9484335382
1787896689255549400,0.016,,,,1787896689255549400,0.9492033582
1787896689263247600,0.002,,,,1787896689263247600,0.9499731782
1787896689270945800,-0.014,,,,1787896689270945800,0.9507429982
1787896689278644000,-0.028,,,,1787896689278644000,0.9515128182
1787896689286342200,-0.06,,,,1787896689286342200,0.9522826382
1787896689294040400,-0.093,,,,1787896689294040400,0.9530524582
1787896689301738600,-0.12,,,,1787896689301738600,0.9538222782
1787896689309436800,-0.153,,,,1787896689309436800,0.9545920982
1787896689317135024,-0.197,,,,1787896689317135024,0.9553619206
1787896689324833154,-0.242,,,,1787896689324833154,0.9561317336
1787896689332531284,-0.266,,,,1787896689332531284,0.9569015466
1787896689340229414,-0.278,,,,1787896689340229414,0.9576713596
1787896689347927544,-0.29,,,,1787896689347927544,0.9584411726
1787896689355625674,-0.286,,,,1787896689355625674,0.9592109856
1787896689363323804,-0.283,,,,1787896689363323804,0.9599807986
1787896689371021934,-0.278,,,,1787896689371021934,0.9607506116
1787896689378720064,-0.271,,,,1787896689378720064,0.9615204246
1787896689386418194,-0.269,,,,1787896689386418194,0.9622902376
1787896689394116324,-0.266,,,,1787896689394116324,0.9630600506
1787896689401814454,-0.259,,,,1787896689401814454,0.9638298636
1787896689409512584,-0.254,,,,1787896689409512584,0.9645996766
1787896689417210714,-0.247,,,,1787896689417210714,0.9653694896
1787896689424908844,-0.25,,,,1787896689424908844,0.9661393026
1787896689432606974,-0.254,,,,1787896689432606974,0.9669091156
1787896689440305104,-0.247,,,,1787896689440305104,0.9676789286
1787896689448003234,-0.24,,,,1787896689448003234,0.9684487416
1787896689455701364,-0.24,,,,1787896689455701364,0.9692185546
1787896689463399494,-0.247,,,,1787896689463399494,0.9699883676
1787896689471097624,-0.247,,,,1787896689471097624,0.9707581806
1787896689478795754,-0.242,,,,1787896689478795754,0.9715279936
1787896689486493884,-0.245,,,,1787896689486493884,0.9722978066
1787896689494192014,-0.25,,,,1787896689494192014,0.9730676196
1787896689501890144,-0.252,,,,1787896689501890144,0.9738374326
1787896689509588274,-0.25,,,,1787896689509588274,0.9746072456
1787896689517286404,-0.247,,,,1787896689517286404,0.9753770586
1787896689524984534,-0.252,,,,1787896689524984534,0.9761468716
1787896689532682664,-0.262,,,,1787896689532682664,0.9769166846
1787896689540380794,-0.262,,,,1787896689540380794,0.9776864976
1787896689548078924,-0.254,,,,1787896689548078924,0.9784563106
1787896689555777054,-0.247,,,,1787896689555777054,0.9792261236
1787896689563475184,-0.247,,,,1787896689563475184,0.9799959366
1787896689571173314,-0.252,,,,1787896689571173314,0.9807657496
1787896689578871444,-0.254,,,,1787896689578871444,0.9815355626
1787896689586569574,-0.257,,,,1787896689586569574,0.9823053756
1787896689594267704,-0.254,,,,1787896689594267704,0.9830751886
1787896689601965834,-0.252,,,,1787896689601965834,0.9838450016
1787896689609663964,-0.254,,,,1787896689609663964,0.9846148146
1787896689617362094,-0.254,,,,1787896689617362094,0.9853846276
1787896689625060224,-0.252,,,,1787896689625060224,0.9861544406
1787896689632758354,-0.254,,,,1787896689632758354,0.9869242536
1787896689640456484,-0.254,,,,1787896689640456484,0.9876940666
1787896689648154614,-0.25,,,,1787896689648154614,0.9884638796
1787896689655852744,-0.25,,,,1787896689655852744,0.9892336926
1787896689663550874,-0.257,,,,1787896689663550874,0.9900035056
1787896689671249004,-0.262,,,,1787896689671249004,0.9907733186
1787896689678947134,-0.252,,,,1787896689678947134,0.9915431316
1787896689686645264,-0.24,,,,1787896689686645264,0.9923129446
1787896689694343394,-0.23,,,,1787896689694343394,0.9930827576
1787896689702041524,-0.226,,,,1787896689702041524,0.9938525706
1787896689709739654,-0.209,,,,1787896689709739654,0.9946223836
1787896689717437784,-0.187,,,,1787896689717437784,0.9953921966
1787896689725135914,-0.197,,,,1787896689725135914,0.9961620096
1787896689732834044,-0.223,,,,1787896689732834044,0.9969318226
1787896689740532174,-0.23,,,,1787896689740532174,0.9977016356
1787896689748230304,-0.235,,,,1787896689748230304,0.9984714486
1787896689755928434,-0.238,,,,1787896689755928434,0.9992412616
1787896689763626564,-0.235,,,,1787896689763626564,1.0000110746
1787896689771324694,-0.238,,,,1787896689771324694,1.0007808876
1787896689779022824,-0.238,,,,1787896689779022824,1.0015507006
1787896689786720954,-0.235,,,,1787896689786720954,1.0023205136
1787896689794419084,-0.223,,,,1787896689794419084,1.0030903266
1787896689802117214,-0.233,,,,1787896689802117214,1.0038601396
1787896689809815344,-0.295,,,,1787896689809815344,1.0046299526
1787896689817513474,-0.276,,,,1787896689817513474,1.0053997656
1787896689825211604,0.074,,,,1787896689825211604,1.0061695786
1787896689832909734,0.7020000000000001,,,,1787896689832909734,1.0069393916
1787896689840607864,0.983,,,,1787896689840607864,1.0077092046
1787896689848305994,0.307,,,,1787896689848305994,1.0084790176
1787896689856004124,-0.747,,,,1787896689856004124,1.0092488306
1787896689863702254,-0.906,,,,1787896689863702254,1.0100186436
1787896689871400384,-0.418,,,,1787896689871400384,1.0107884566
1787896689879098566,-0.298,77.0,756.0,,1787896689879098566,1.0115582748
1787896689886796836,-0.363,,,,1787896689886796836,1.0123281018
1787896689894495106,-0.252,,,,1787896689894495106,1.0130979288
1787896689902193376,-0.187,,,,1787896689902193376,1.0138677558
1787896689909891646,-0.216,,,,1787896689909891646,1.0146375828
1787896689917589916,-0.202,,,,1787896689917589916,1.0154074098
1787896689925288186,-0.175,,,,1787896689925288186,1.0161772368
1787896689932986456,-0.177,,,,1787896689932986456,1.0169470638
1787896689940684726,-0.168,,,,1787896689940684726,1.0177168908
1787896689948382996,-0.151,,,,1787896689948382996,1.0184867178
1787896689956081266,-0.146,,,,1787896689956081266,1.0192565448
1787896689963779536,-0.144,,,,1787896689963779536,1.0200263718
1787896689971477806,-0.137,,,,1787896689971477806,1.0207961988
1787896689979176076,-0.125,,,,1787896689979176076,1.0215660258
1787896689986874346,-0.115,,,,1787896689986874346,1.0223358528
1787896689994572616,-0.098,,,,1787896689994572616,1.0231056798
1787896690002270886,-0.086,,,,1787896690002270886,1.0238755068
1787896690009969156,-0.079,,,,1787896690009969156,1.0246453338
1787896690017667426,-0.057,,,,1787896690017667426,1.0254151608
1787896690025365696,-0.028,,,,1787896690025365696,1.0261849878
1787896690033063966,-0.004,,,,1787896690033063966,1.0269548148
1787896690040762236,0.007,,,,1787896690040762236,1.0277246418
1787896690048460506,0.019,,,,1787896690048460506,1.0284944688
1787896690056158776,0.04,,,,1787896690056158776,1.0292642958
1787896690063857046,0.05,,,,1787896690063857046,1.0300341228
1787896690071555316,0.04,,,,1787896690071555316,1.0308039498
1787896690079253586,0.031,,,,1787896690079253586,1.0315737768
1787896690086951856,0.016,,,,1787896690086951856,1.0323436038
1787896690094650126,0.0,,,,1787896690094650126,1.0331134308
1787896690102348396,-0.026,,,,1787896690102348396,1.0338832578
1787896690110046666,-0.064,,,,1787896690110046666,1.0346530848
1787896690117744936,-0.103,,,,1787896690117744936,1.0354229118
1787896690125443206,-0.144,,,,1787896690125443206,1.0361927388
1787896690133141476,-0.185,,,,1787896690133141476,1.0369625658
1787896690140839746,-0.216,,,,1787896690140839746,1.0377323928
1787896690148538016,-0.242,,,,1787896690148538016,1.0385022198
1787896690156236286,-0.262,,,,1787896690156236286,1.0392720468
1787896690163934556,-0.271,,,,1787896690163934556,1.0400418738
1787896690171632826,-0.269,,,,1787896690171632826,1.0408117008
1787896690179331096,-0.266,,,,1787896690179331096,1.0415815278
1787896690187029366,-0.269,,,,1787896690187029366,1.0423513548
1787896690194727636,-0.259,,,,1787896690194727636,1.0431211818
1787896690202425906,-0.25,,,,1787896690202425906,1.0438910088
1787896690210124176,-0.247,,,,1787896690210124176,1.0446608358
1787896690217822446,-0.24,,,,1787896690217822446,1.0454306628
1787896690225520716,-0.233,,,,1787896690225520716,1.0462004898
1787896690233218986,-0.23,,,,1787896690233218986,1.0469703168
1787896690240917256,-0.23,,,,1787896690240917256,1.0477401438
1787896690248615526,-0.23,,,,1787896690248615526,1.0485099708
1787896690256313796,-0.226,,,,1787896690256313796,1.0492797978
1787896690264012066,-0.223,,,,1787896690264012066,1.0500496248
1787896690271710336,-0.228,,,,1787896690271710336,1.0508194518
1787896690279408606,-0.23,,,,1787896690279408606,1.0515892788
1787896690287106876,-0.233,,,,1787896690287106876,1.0523591058
1787896690294805146,-0.235,,,,1787896690294805146,1.0531289328
1787896690302503416,-0.242,,,,1787896690302503416,1.0538987598
1787896690310201686,-0.24,,,,1787896690310201686,1.0546685868
1787896690317899956,-0.242,,,,1787896690317899956,1.0554384138
1787896690325598226,-0.254,,,,1787896690325598226,1.0562082408
1787896690333296496,-0.254,,,,1787896690333296496,1.0569780678
1787896690340994766,-0.25,,,,1787896690340994766,1.0577478948
1787896690348693036,-0.254,,,,1787896690348693036,1.0585177218
1787896690356391306,-0.25,,,,1787896690356391306,1.0592875488
1787896690364089576,-0.24,,,,1787896690364089576,1.0600573758
1787896690371787846,-0.245,,,,1787896690371787846,1.0608272028
1787896690379486116,-0.252,,,,1787896690379486116,1.0615970298
1787896690387184386,-0.254,,,,1787896690387184386,1.0623668568
1787896690394882656,-0.25,,,,1787896690394882656,1.0631366838
1787896690402580926,-0.25,,,,1787896690402580926,1.0639065108
1787896690410279196,-0.247,,,,1787896690410279196,1.0646763378
1787896690417977466,-0.24,,,,1787896690417977466,1.0654461648
1787896690425675736,-0.235,,,,1787896690425675736,1.0662159918
1787896690433374006,-0.233,,,,1787896690433374006,1.0669858188
1787896690441072276,-0.238,77.0,870.0,,1787896690441072276,1.0677556458
1787896690448770685,-0.245,,880.0,,1787896690448770685,1.0685254867
1787896690456469094,-0.238,,,,1787896690456469094,1.0692953276
1787896690464167503,-0.228,,,,1787896690464167503,1.0700651685
1787896690471865912,-0.228,,,,1787896690471865912,1.0708350094
1787896690479564321,-0.226,,,,1787896690479564321,1.0716048503
1787896690487262730,-0.221,,,,1787896690487262730,1.0723746912
1787896690494961139,-0.218,,,,1787896690494961139,1.0731445321
1787896690502659548,-0.226,,,,1787896690502659548,1.073914373
1787896690510357957,-0.235,,,,1787896690510357957,1.0746842139
1787896690518056366,-0.233,,,,1787896690518056366,1.0754540548
1787896690525754775,-0.218,,,,1787896690525754775,1.0762238957
1787896690533453184,-0.202,,,,1787896690533453184,1.0769937366
1787896690541151593,-0.202,,,,1787896690541151593,1.0777635775
1787896690548850002,-0.202,,,,1787896690548850002,1.0785334184
1787896690556548411,-0.182,,,,1787896690556548411,1.0793032593
1787896690564246820,-0.165,,,,1787896690564246820,1.0800731002
1787896690571945229,-0.175,,,,1787896690571945229,1.0808429411
1787896690579643638,-0.189,,,,1787896690579643638,1.081612782
1787896690587342047,-0.199,,,,1787896690587342047,1.0823826229
1787896690595040456,-0.204,,,,1787896690595040456,1.0831524638
1787896690602738865,-0.202,,,,1787896690602738865,1.0839223047
1787896690610437274,-0.202,,,,1787896690610437274,1.0846921456
1787896690618135683,-0.202,,,,1787896690618135683,1.0854619865
1787896690625834092,-0.206,,,,1787896690625834092,1.0862318274
1787896690633532501,-0.199,,,,1787896690633532501,1.0870016683
1787896690641230910,-0.192,,,,1787896690641230910,1.0877715092
1787896690648929319,-0.221,,,,1787896690648929319,1.0885413501
1787896690656627728,-0.269,,,,1787896690656627728,1.089311191
1787896690664326137,-0.156,,,,1787896690664326137,1.0900810319
1787896690672024546,0.31,,,,1787896690672024546,1.0908508728
1787896690679722955,0.87,,,,1787896690679722955,1.0916207137
1787896690687421364,0.848,,,,1787896690687421364,1.0923905546
1787896690695119773,-0.038,,,,1787896690695119773,1.0931603955
1787896690702818182,-0.839,,,,1787896690702818182,1.0939302364
1787896690710516591,-0.673,,,,1787896690710516591,1.0947000773
1787896690718215000,-0.281,,,,1787896690718215000,1.0954699182
1787896690725913409,-0.293,,,,1787896690725913409,1.0962397591
1787896690733611818,-0.295,,,,1787896690733611818,1.0970096
1787896690741310227,-0.189,,,,1787896690741310227,1.0977794409
1787896690749008636,-0.185,,,,1787896690749008636,1.0985492818
1787896690756707045,-0.204,,,,1787896690756707045,1.0993191227
1787896690764405454,-0.18,,,,1787896690764405454,1.1000889636
1787896690772103863,-0.173,,,,1787896690772103863,1.1008588045
1787896690779802272,-0.18,,,,1787896690779802272,1.1016286454
1787896690787500681,-0.175,,,,1787896690787500681,1.1023984863
1787896690795199090,-0.165,,,,1787896690795199090,1.1031683272
1787896690802897499,-0.161,,,,1787896690802897499,1.1039381681
1787896690810595908,-0.156,,,,1787896690810595908,1.104708009
1787896690818294317,-0.144,,,,1787896690818294317,1.1054778499
1787896690825992726,-0.137,,,,1787896690825992726,1.1062476908
1787896690833691135,-0.125,,,,1787896690833691135,1.1070175317
1787896690841389544,-0.108,,,,1787896690841389544,1.1077873726
1787896690849087953,-0.098,,,,1787896690849087953,1.1085572135
1787896690856786362,-0.076,,,,1787896690856786362,1.1093270544
1787896690864484771,-0.05,,,,1787896690864484771,1.1100968953
1787896690872183180,-0.028,,,,1787896690872183180,1.1108667362
1787896690879881589,-0.002,,,,1787896690879881589,1.1116365771
1787896690887579998,0.019,,,,1787896690887579998,1.112406418
1787896690895278407,0.026,,,,1787896690895278407,1.1131762589
1787896690902976816,0.031,,,,1787896690902976816,1.1139460998
1787896690910675225,0.043,,,,1787896690910675225,1.1147159407
1787896690918373634,0.048,,,,1787896690918373634,1.1154857816
1787896690926072043,0.033,,,,1787896690926072043,1.1162556225
1787896690933770452,0.026,,,,1787896690933770452,1.1170254634
1787896690941468861,0.016,,,,1787896690941468861,1.1177953043
1787896690949167270,-0.009,,,,1787896690949167270,1.1185651452
1787896690956865679,-0.036,,,,1787896690956865679,1.1193349861
1787896690964564088,-0.074,,,,1787896690964564088,1.120104827
1787896690972262497,-0.12,,,,1787896690972262497,1.1208746679
1787896690979960906,-0.158,,,,1787896690979960906,1.1216445088
1787896690987659315,-0.187,,,,1787896690987659315,1.1224143497
1787896690995357724,-0.206,,,,1787896690995357724,1.1231841906
1787896691003056160,-0.223,,,,1787896691003056160,1.1239540342
1787896691010754569,-0.23,,,,1787896691010754569,1.1247238751
1787896691018452978,-0.228,,,,1787896691018452978,1.125493716
1787896691026151387,-0.226,,,,1787896691026151387,1.1262635569
1787896691033849796,-0.226,,,,1787896691033849796,1.1270333978
1787896691041548205,-0.223,,,,1787896691041548205,1.1278032387
1787896691049246614,-0.216,,,,1787896691049246614,1.1285730796
1787896691056945023,-0.209,,,,1787896691056945023,1.1293429205
1787896691064643432,-0.211,,,,1787896691064643432,1.1301127614
1787896691072341841,-0.214,,,,1787896691072341841,1.1308826023
1787896691080040250,-0.202,,,,1787896691080040250,1.1316524432
1787896691087738659,-0.189,,,,1787896691087738659,1.1324222841
1787896691095437068,-0.187,,,,1787896691095437068,1.133192125
1787896691103135477,-0.192,,,,1787896691103135477,1.1339619659
1787896691110833886,-0.194,,,,1787896691110833886,1.1347318068
1787896691118532295,-0.192,,,,1787896691118532295,1.1355016477
1787896691126230704,-0.197,,,,1787896691126230704,1.1362714886
1787896691133929113,-0.204,,,,1787896691133929113,1.1370413295
1787896691141627522,-0.206,,,,1787896691141627522,1.1378111704
1787896691149325931,-0.209,,,,1787896691149325931,1.1385810113
1787896691157024340,-0.214,,,,1787896691157024340,1.1393508522
1787896691164722749,-0.221,,,,1787896691164722749,1.1401206931
1787896691172421158,-0.223,,,,1787896691172421158,1.140890534
1787896691180119567,-0.218,,,,1787896691180119567,1.1416603749
1787896691187817976,-0.221,,,,1787896691187817976,1.1424302158
1787896691195516385,-0.221,,,,1787896691195516385,1.1432000567
1787896691203214794,-0.223,,,,1787896691203214794,1.1439698976
1787896691210913203,-0.228,,,,1787896691210913203,1.1447397385
1787896691218611612,-0.226,,,,1787896691218611612,1.1455095794
1787896691226310021,-0.226,,,,1787896691226310021,1.1462794203
1787896691234008430,-0.23,,,,1787896691234008430,1.1470492612
1787896691241706839,-0.235,,,,1787896691241706839,1.1478191021
1787896691249405248,-0.242,,,,1787896691249405248,1.148588943
1787896691257103657,-0.24,,,,1787896691257103657,1.1493587839
1787896691264802066,-0.24,,,,1787896691264802066,1.1501286248
1787896691272500475,-0.242,,,,1787896691272500475,1.1508984657
1787896691280198884,-0.238,,,,1787896691280198884,1.1516683066
1787896691287897293,-0.238,,,,1787896691287897293,1.1524381475
1787896691295595702,-0.238,,,,1787896691295595702,1.1532079884
1787896691303294111,-0.24,,,,1787896691303294111,1.1539778293
1787896691310992520,-0.242,,,,1787896691310992520,1.1547476702
1787896691318690929,-0.242,,,,1787896691318690929,1.1555175111
1787896691326389338,-0.25,,,,1787896691326389338,1.156287352
1787896691334087747,-0.254,,,,1787896691334087747,1.1570571929
1787896691341786156,-0.254,,,,1787896691341786156,1.1578270338
1787896691349484565,-0.252,,,,1787896691349484565,1.1585968747
1787896691357182974,-0.254,,,,1787896691357182974,1.1593667156
1787896691364881383,-0.252,,,,1787896691364881383,1.1601365565
1787896691372579792,-0.242,,,,1787896691372579792,1.1609063974
1787896691380278201,-0.242,,,,1787896691380278201,1.1616762383
1787896691387976610,-0.25,,,,1787896691387976610,1.1624460792
1787896691395675019,-0.25,,,,1787896691395675019,1.1632159201
1787896691403373428,-0.257,,,,1787896691403373428,1.163985761
1787896691411071837,-0.269,,,,1787896691411071837,1.1647556019
1787896691418770246,-0.247,,,,1787896691418770246,1.1655254428
1787896691426468655,-0.221,,,,1787896691426468655,1.1662952837
1787896691434167064,-0.221,,,,1787896691434167064,1.1670651246
1787896691441865473,-0.23,,,,1787896691441865473,1.1678349655
1787896691449563882,-0.233,,,,1787896691449563882,1.1686048064
1787896691457262291,-0.221,,,,1787896691457262291,1.1693746473
1787896691464960700,-0.209,,,,1787896691464960700,1.1701444882
1787896691472659109,-0.209,,,,1787896691472659109,1.1709143291
1787896691480357518,-0.221,,,,1787896691480357518,1.17168417
1787896691488055927,-0.242,,,,1787896691488055927,1.1724540109
1787896691495754336,-0.254,,,,1787896691495754336,1.1732238518
1787896691503452745,-0.254,,,,1787896691503452745,1.1739936927
1787896691511151154,-0.25,,,,1787896691511151154,1.1747635336
1787896691518849563,-0.242,,,,1787896691518849563,1.1755333745
1787896691526547972,-0.235,,,,1787896691526547972,1.1763032154
1787896691534246381,-0.223,,,,1787896691534246381,1.1770730563
1787896691541944790,-0.223,,,,1787896691541944790,1.1778428972
1787896691549643199,-0.264,,,,1787896691549643199,1.1786127381
1787896691557341608,-0.3,,,,1787896691557341608,1.179382579
1787896691565040042,-0.105,76.0,813.0,,1787896691565040042,1.1801524224
1787896691572738242,0.425,,,,1787896691572738242,1.1809222424
1787896691580436442,0.858,,,,1787896691580436442,1.1816920624
1787896691588134642,0.533,,,,1787896691588134642,1.1824618824
1787896691595832842,-0.416,,,,1787896691595832842,1.1832317024
1787896691603531042,-0.884,,,,1787896691603531042,1.1840015224
1787896691611229242,-0.55,,,,1787896691611229242,1.1847713424
1787896691618927442,-0.315,,,,1787896691618927442,1.1855411624
1787896691626625642,-0.367,,,,1787896691626625642,1.1863109824
1787896691634323842,-0.303,,,,1787896691634323842,1.1870808024
1787896691642022042,-0.209,,,,1787896691642022042,1.1878506224
1787896691649720242,-0.221,,,,1787896691649720242,1.1886204424
1787896691657418442,-0.218,,,,1787896691657418442,1.1893902624
1787896691665116642,-0.189,,,,1787896691665116642,1.1901600824
1787896691672814842,-0.189,,,,1787896691672814842,1.1909299024
1787896691680513042,-0.192,,,,1787896691680513042,1.1916997224
1787896691688211242,-0.175,,,,1787896691688211242,1.1924695424
1787896691695909442,-0.161,,,,1787896691695909442,1.1932393624
1787896691703607642,-0.165,,,,1787896691703607642,1.1940091824
1787896691711305842,-0.165,,,,1787896691711305842,1.1947790024
1787896691719004042,-0.156,,,,1787896691719004042,1.1955488224
1787896691726702242,-0.153,,,,1787896691726702242,1.1963186424
1787896691734400442,-0.141,,,,1787896691734400442,1.1970884624
1787896691742098642,-0.115,,,,1787896691742098642,1.1978582824
1787896691749796842,-0.101,,,,1787896691749796842,1.1986281024
1787896691757495042,-0.096,,,,1787896691757495042,1.1993979224
1787896691765193242,-0.072,,,,1787896691765193242,1.2001677424
1787896691772891442,-0.043,,,,1787896691772891442,1.2009375624
1787896691780589642,-0.026,,,,1787896691780589642,1.2017073824
1787896691788287842,-0.014,,,,1787896691788287842,1.2024772024
1787896691795986042,0.002,,,,1787896691795986042,1.2032470224
1787896691803684242,0.0,,,,1787896691803684242,1.2040168424
1787896691811382442,0.0,,,,1787896691811382442,1.2047866624
1787896691819080642,0.014,,,,1787896691819080642,1.2055564824
1787896691826778842,0.007,,,,1787896691826778842,1.2063263024
1787896691834477042,-0.024,,,,1787896691834477042,1.2070961224
1787896691842175242,-0.05,,,,1787896691842175242,1.2078659424
1787896691849873442,-0.074,,,,1787896691849873442,1.2086357624
1787896691857571642,-0.105,,,,1787896691857571642,1.2094055824
1787896691865269842,-0.146,,,,1787896691865269842,1.2101754024
1787896691872968042,-0.175,,,,1787896691872968042,1.2109452224
1787896691880666242,-0.206,,,,1787896691880666242,1.2117150424
1787896691888364442,-0.245,,,,1787896691888364442,1.2124848624
1787896691896062642,-0.264,,,,1787896691896062642,1.2132546824
1787896691903760842,-0.271,,,,1787896691903760842,1.2140245024
1787896691911459042,-0.274,,,,1787896691911459042,1.2147943224
1787896691919157242,-0.271,,,,1787896691919157242,1.2155641424
1787896691926855442,-0.276,,,,1787896691926855442,1.2163339624
1787896691934553642,-0.276,,,,1787896691934553642,1.2171037824
1787896691942251842,-0.259,,,,1787896691942251842,1.2178736024
1787896691949950042,-0.25,,,,1787896691949950042,1.2186434224
1787896691957648242,-0.257,,,,1787896691957648242,1.2194132424
1787896691965346442,-0.259,,,,1787896691965346442,1.2201830624
1787896691973044642,-0.247,,,,1787896691973044642,1.2209528824
1787896691980742842,-0.242,,,,1787896691980742842,1.2217227024
1787896691988441042,-0.25,,,,1787896691988441042,1.2224925224
1787896691996139242,-0.247,,,,1787896691996139242,1.2232623424
1787896692003837442,-0.247,,,,1787896692003837442,1.2240321624
1787896692011535642,-0.25,,,,1787896692011535642,1.2248019824
1787896692019233842,-0.242,,,,1787896692019233842,1.2255718024
1787896692026932042,-0.242,,,,1787896692026932042,1.2263416224
1787896692034630242,-0.242,,,,1787896692034630242,1.2271114424
1787896692042328442,-0.242,,,,1787896692042328442,1.2278812624
1787896692050026642,-0.25,,,,1787896692050026642,1.2286510824
1787896692057724842,-0.252,,,,1787896692057724842,1.2294209024
1787896692065423042,-0.257,,,,1787896692065423042,1.2301907224
1787896692073121242,-0.262,,,,1787896692073121242,1.2309605424
1787896692080819442,-0.257,,,,1787896692080819442,1.2317303624
1787896692088517642,-0.254,,,,1787896692088517642,1.2325001824
1787896692096215842,-0.252,,,,1787896692096215842,1.2332700024
1787896692103914042,-0.254,,,,1787896692103914042,1.2340398224
1787896692111612242,-0.269,,,,1787896692111612242,1.2348096424
1787896692119310442,-0.266,,,,1787896692119310442,1.2355794624
1787896692127008666,-0.25,,,,1787896692127008666,1.2363492848
1787896692134706866,-0.245,,,,1787896692134706866,1.2371191048
1787896692142405066,-0.247,,,,1787896692142405066,1.2378889248
1787896692150103266,-0.247,,,,1787896692150103266,1.2386587448
1787896692157801466,-0.247,,,,1787896692157801466,1.2394285648
1787896692165499666,-0.252,,,,1787896692165499666,1.2401983848
1787896692173197866,-0.252,,,,1787896692173197866,1.2409682048
1787896692180896066,-0.24,,,,1787896692180896066,1.2417380248
1787896692188594266,-0.233,,,,1787896692188594266,1.2425078448
1787896692196292466,-0.233,,,,1787896692196292466,1.2432776648
1787896692203990666,-0.235,,,,1787896692203990666,1.2440474848
1787896692211688866,-0.238,,,,1787896692211688866,1.2448173048
1787896692219387066,-0.245,,,,1787896692219387066,1.2455871248
1787896692227085266,-0.259,,,,1787896692227085266,1.2463569448
1787896692234783466,-0.254,,,,1787896692234783466,1.2471267648
1787896692242481666,-0.23,,,,1787896692242481666,1.2478965848
1787896692250179866,-0.226,,,,1787896692250179866,1.2486664048
1787896692257878066,-0.238,,,,1787896692257878066,1.2494362248
1787896692265576266,-0.24,,,,1787896692265576266,1.2502060448
1787896692273274466,-0.226,,,,1787896692273274466,1.2509758648
1787896692280972666,-0.211,,,,1787896692280972666,1.2517456848
1787896692288670866,-0.216,,,,1787896692288670866,1.2525155048
1787896692296369066,-0.24,,,,1787896692296369066,1.2532853248
1787896692304067266,-0.264,,,,1787896692304067266,1.2540551448
1787896692311765466,-0.262,,,,1787896692311765466,1.2548249648
1787896692319463666,-0.247,,,,1787896692319463666,1.2555947848
1787896692327161866,-0.245,,,,1787896692327161866,1.2563646048
1787896692334860066,-0.247,,,,1787896692334860066,1.2571344248
1787896692342558266,-0.245,,,,1787896692342558266,1.2579042448
1787896692350256466,-0.242,,,,1787896692350256466,1.2586740648
1787896692357954666,-0.247,,,,1787896692357954666,1.2594438848
1787896692365652866,-0.269,,,,1787896692365652866,1.2602137048
1787896692373351066,-0.317,,,,1787896692373351066,1.2609835248
1787896692381049266,-0.252,,,,1787896692381049266,1.2617533448
1787896692388747466,0.163,,,,1787896692388747466,1.2625231648
1787896692396445666,0.771,,,,1787896692396445666,1.2632929848
1787896692404143866,0.8240000000000001,,,,1787896692404143866,1.2640628048
1787896692411842066,-0.043,,,,1787896692411842066,1.2648326248
1787896692419540266,-0.87,,,,1787896692419540266,1.2656024448
1787896692427238466,-0.752,,,,1787896692427238466,1.2663722648
1787896692434936666,-0.372,,,,1787896692434936666,1.2671420848
1787896692442634866,-0.355,,,,1787896692442634866,1.2679119048
1787896692450333066,-0.327,,,,1787896692450333066,1.2686817248
1787896692458031266,-0.211,,,,1787896692458031266,1.2694515448
1787896692465729466,-0.211,,,,1787896692465729466,1.2702213648
1787896692473427666,-0.216,,,,1787896692473427666,1.2709911848
1787896692481125866,-0.182,,,,1787896692481125866,1.2717610048
1787896692488824066,-0.182,,,,1787896692488824066,1.2725308248
1787896692496522266,-0.187,,,,1787896692496522266,1.2733006448
1787896692504220466,-0.173,,,,1787896692504220466,1.2740704648
1787896692511918666,-0.165,,,,1787896692511918666,1.2748402848
1787896692519616866,-0.163,,,,1787896692519616866,1.2756101048
1787896692527315066,-0.149,,,,1787896692527315066,1.2763799248
1787896692535013266,-0.141,,,,1787896692535013266,1.2771497448
1787896692542711466,-0.141,,,,1787896692542711466,1.2779195648
1787896692550409666,-0.132,,,,1787896692550409666,1.2786893848
1787896692558107866,-0.115,,,,1787896692558107866,1.2794592048
1787896692565806066,-0.101,,,,1787896692565806066,1.2802290248
1787896692573504266,-0.081,,,,1787896692573504266,1.2809988448
1787896692581202466,-0.064,,,,1787896692581202466,1.2817686648
1787896692588900666,-0.045,,,,1787896692588900666,1.2825384848
1787896692596598866,-0.019,,,,1787896692596598866,1.2833083048
1787896692604297066,0.0,,,,1787896692604297066,1.2840781248
1787896692611995266,0.019,,,,1787896692611995266,1.2848479448
1787896692619693466,0.038,,,,1787896692619693466,1.2856177648
1787896692627391666,0.04,,,,1787896692627391666,1.2863875848
1787896692635089866,0.036,,,,1787896692635089866,1.2871574048
1787896692642788066,0.028,,,,1787896692642788066,1.2879272248
1787896692650486266,0.016,,,,1787896692650486266,1.2886970448
1787896692658184466,0.0,,,,1787896692658184466,1.2894668648
1787896692665882666,-0.024,,,,1787896692665882666,1.2902366848
1787896692673580866,-0.057,,,,1787896692673580866,1.2910065048
1787896692681279066,-0.096,,,,1787896692681279066,1.2917763248
1787896692688977290,-0.134,76.0,844.0,,1787896692688977290,1.2925461472
1787896692696675490,-0.168,,,,1787896692696675490,1.2933159672
1787896692704373690,-0.204,,,,1787896692704373690,1.2940857872
1787896692712071890,-0.23,,,,1787896692712071890,1.2948556072
1787896692719770090,-0.238,,,,1787896692719770090,1.2956254272
1787896692727468290,-0.233,,,,1787896692727468290,1.2963952472
1787896692735166490,-0.226,,,,1787896692735166490,1.2971650672
1787896692742864690,-0.228,,,,1787896692742864690,1.2979348872
1787896692750562890,-0.228,,,,1787896692750562890,1.2987047072
1787896692758261090,-0.216,,,,1787896692758261090,1.2994745272
1787896692765959290,-0.204,,,,1787896692765959290,1.3002443472
1787896692773657490,-0.202,,,,1787896692773657490,1.3010141672
1787896692781355690,-0.202,,,,1787896692781355690,1.3017839872
1787896692789053890,-0.199,,,,1787896692789053890,1.3025538072
1787896692796752090,-0.197,,,,1787896692796752090,1.3033236272
1787896692804450290,-0.194,,,,1787896692804450290,1.3040934472
1787896692812148490,-0.189,,,,1787896692812148490,1.3048632672
1787896692819846690,-0.187,,,,1787896692819846690,1.3056330872
1787896692827544890,-0.192,,,,1787896692827544890,1.3064029072
1787896692835243090,-0.189,,,,1787896692835243090,1.3071727272
1787896692842941290,-0.182,,,,1787896692842941290,1.3079425472
1787896692850639490,-0.182,,,,1787896692850639490,1.3087123672
1787896692858337690,-0.185,,,,1787896692858337690,1.3094821872
1787896692866035890,-0.187,,,,1787896692866035890,1.3102520072
1787896692873734090,-0.192,,,,1787896692873734090,1.3110218272
1787896692881432290,-0.194,,,,1787896692881432290,1.3117916472
1787896692889130490,-0.189,,,,1787896692889130490,1.3125614672
1787896692896828690,-0.177,,,,1787896692896828690,1.3133312872
1787896692904526890,-0.177,,,,1787896692904526890,1.3141011072
1787896692912225090,-0.18,,,,1787896692912225090,1.3148709272
1787896692919923290,-0.18,,,,1787896692919923290,1.3156407472
1787896692927621490,-0.187,,,,1787896692927621490,1.3164105672
1787896692935319690,-0.189,,,,1787896692935319690,1.3171803872
1787896692943017890,-0.187,,,,1787896692943017890,1.3179502072
1787896692950716090,-0.182,,,,1787896692950716090,1.3187200272
1787896692958414290,-0.18,,,,1787896692958414290,1.3194898472
1787896692966112490,-0.18,,,,1787896692966112490,1.3202596672
1787896692973810690,-0.185,,,,1787896692973810690,1.3210294872
1787896692981508890,-0.187,,,,1787896692981508890,1.3217993072
1787896692989207090,-0.185,,,,1787896692989207090,1.3225691272
1787896692996905290,-0.177,,,,1787896692996905290,1.3233389472
1787896693004603490,-0.177,,,,1787896693004603490,1.3241087672
1787896693012301690,-0.18,,,,1787896693012301690,1.3248785872
1787896693019999890,-0.177,,,,1787896693019999890,1.3256484072
1787896693027698090,-0.177,,,,1787896693027698090,1.3264182272
1787896693035396290,-0.177,,,,1787896693035396290,1.3271880472
1787896693043094490,-0.187,,,,1787896693043094490,1.3279578672
1787896693050792690,-0.194,,,,1787896693050792690,1.3287276872
1787896693058490890,-0.187,,,,1787896693058490890,1.3294975072
1787896693066189090,-0.173,,,,1787896693066189090,1.3302673272
1787896693073887290,-0.168,,,,1787896693073887290,1.3310371472
1787896693081585490,-0.168,,,,1787896693081585490,1.3318069672
1787896693089283690,-0.158,,,,1787896693089283690,1.3325767872
1787896693096981890,-0.137,,,,1787896693096981890,1.3333466072
1787896693104680090,-0.132,,,,1787896693104680090,1.3341164272
1787896693112378290,-0.146,,,,1787896693112378290,1.3348862472
1787896693120076490,-0.161,,,,1787896693120076490,1.3356560672
1787896693127774690,-0.175,,,,1787896693127774690,1.3364258872
1787896693135472890,-0.177,,,,1787896693135472890,1.3371957072
1787896693143171090,-0.165,,,,1787896693143171090,1.3379655272
1787896693150869290,-0.156,,,,1787896693150869290,1.3387353472
1787896693158567490,-0.158,,,,1787896693158567490,1.3395051672
1787896693166265690,-0.168,,,,1787896693166265690,1.3402749872
1787896693173963890,-0.165,,,,1787896693173963890,1.3410448072
1787896693181662090,-0.165,,,,1787896693181662090,1.3418146272
1787896693189360290,-0.206,,,,1787896693189360290,1.3425844472
1787896693197058490,-0.242,,,,1787896693197058490,1.3433542672
1787896693204756690,-0.031,,,,1787896693204756690,1.3441240872
1787896693212454890,0.531,,,,1787896693212454890,1.3448939072
1787896693220153090,1.0,,,,1787896693220153090,1.3456637272
1787896693227851290,0.663,,,,1787896693227851290,1.3464335472
1787896693235549490,-0.372,,,,1787896693235549490,1.3472033672
1787896693243247690,-0.877,,,,1787896693243247690,1.3479731872
1787896693250945918,-0.495,,,,1787896693250945918,1.34874301
1787896693258644397,-0.233,,,,1787896693258644397,1.3495128579
1787896693266342876,-0.298,,,,1787896693266342876,1.3502827058
1787896693274041355,-0.238,,,,1787896693274041355,1.3510525537
1787896693281739834,-0.149,,,,1787896693281739834,1.3518224016
1787896693289438313,-0.175,,,,1787896693289438313,1.3525922495
1787896693297136792,-0.18,,,,1787896693297136792,1.3533620974
1787896693304835271,-0.151,,,,1787896693304835271,1.3541319453
1787896693312533750,-0.149,,,,1787896693312533750,1.3549017932
1787896693320232229,-0.144,,,,1787896693320232229,1.3556716411
1787896693327930708,-0.125,,,,1787896693327930708,1.356441489
1787896693335629187,-0.117,,,,1787896693335629187,1.3572113369
1787896693343327666,-0.117,,,,1787896693343327666,1.3579811848
1787896693351026145,-0.115,,,,1787896693351026145,1.3587510327
1787896693358724624,-0.108,,,,1787896693358724624,1.3595208806
1787896693366423103,-0.096,,,,1787896693366423103,1.3602907285
1787896693374121582,-0.088,,,,1787896693374121582,1.3610605764
1787896693381820061,-0.076,,,,1787896693381820061,1.3618304243
1787896693389518540,-0.055,,,,1787896693389518540,1.3626002722
1787896693397217019,-0.028,,,,1787896693397217019,1.3633701201
1787896693404915498,-0.012,,,,1787896693404915498,1.364139968
1787896693412613977,0.009,,,,1787896693412613977,1.3649098159
1787896693420312456,0.036,,,,1787896693420312456,1.3656796638
1787896693428010935,0.055,,,,1787896693428010935,1.3664495117
1787896693435709414,0.069,,,,1787896693435709414,1.3672193596
1787896693443407893,0.076,,,,1787896693443407893,1.3679892075
1787896693451106372,0.079,,,,1787896693451106372,1.3687590554
1787896693458804851,0.074,,,,1787896693458804851,1.3695289033
1787896693466503330,0.055,,,,1787896693466503330,1.3702987512
1787896693474201809,0.033,,,,1787896693474201809,1.3710685991
1787896693481900288,0.016,,,,1787896693481900288,1.371838447
1787896693489598767,-0.012,,,,1787896693489598767,1.3726082949
1787896693497297246,-0.048,,,,1787896693497297246,1.3733781428
1787896693504995725,-0.084,,,,1787896693504995725,1.3741479907
1787896693512694204,-0.12,,,,1787896693512694204,1.3749178386
1787896693520392683,-0.158,,,,1787896693520392683,1.3756876865
1787896693528091162,-0.189,,,,1787896693528091162,1.3764575344
1787896693535789641,-0.204,,,,1787896693535789641,1.3772273823
1787896693543488120,-0.218,,,,1787896693543488120,1.3779972302
1787896693551186599,-0.233,,,,1787896693551186599,1.3787670781
1787896693558885078,-0.23,,,,1787896693558885078,1.379536926
1787896693566583557,-0.228,,,,1787896693566583557,1.3803067739
1787896693574282036,-0.228,,,,1787896693574282036,1.3810766218
1787896693581980515,-0.226,,,,1787896693581980515,1.3818464697
1787896693589678994,-0.216,,,,1787896693589678994,1.3826163176
1787896693597377473,-0.214,,,,1787896693597377473,1.3833861655
1787896693605075952,-0.218,,,,1787896693605075952,1.3841560134
1787896693612774431,-0.211,,,,1787896693612774431,1.3849258613
1787896693620472910,-0.206,,,,1787896693620472910,1.3856957092
1787896693628171389,-0.209,,,,1787896693628171389,1.3864655571
1787896693635869868,-0.202,,,,1787896693635869868,1.387235405
1787896693643568347,-0.199,,,,1787896693643568347,1.3880052529
1787896693651266826,-0.204,,,,1787896693651266826,1.3887751008
1787896693658965305,-0.204,,,,1787896693658965305,1.3895449487
1787896693666663784,-0.209,,,,1787896693666663784,1.3903147966
1787896693674362263,-0.209,,,,1787896693674362263,1.3910846445
1787896693682060742,-0.209,,,,1787896693682060742,1.3918544924
1787896693689759221,-0.211,,,,1787896693689759221,1.3926243403
1787896693697457700,-0.216,,,,1787896693697457700,1.3933941882
1787896693705156179,-0.221,,,,1787896693705156179,1.3941640361
1787896693712854658,-0.223,,,,1787896693712854658,1.394933884
1787896693720553137,-0.221,,,,1787896693720553137,1.3957037319
1787896693728251616,-0.223,,,,1787896693728251616,1.3964735798
1787896693735950095,-0.228,,,,1787896693735950095,1.3972434277
1787896693743648574,-0.235,,,,1787896693743648574,1.3980132756
1787896693751347053,-0.238,,,,1787896693751347053,1.3987831235
1787896693759045532,-0.24,,,,1787896693759045532,1.3995529714
1787896693766744011,-0.247,,,,1787896693766744011,1.4003228193
1787896693774442490,-0.242,,,,1787896693774442490,1.4010926672
1787896693782140969,-0.233,,,,1787896693782140969,1.4018625151
1787896693789839448,-0.238,,,,1787896693789839448,1.402632363
1787896693797537927,-0.242,,,,1787896693797537927,1.4034022109
1787896693805236406,-0.242,,,,1787896693805236406,1.4041720588
1787896693812934888,-0.242,75.0,898.0,,1787896693812934888,1.404941907
1787896693820633227,-0.24,,,,1787896693820633227,1.4057117409
1787896693828331566,-0.238,,,,1787896693828331566,1.4064815748
1787896693836029905,-0.24,,,,1787896693836029905,1.4072514087
1787896693843728244,-0.24,,,,1787896693843728244,1.4080212426
1787896693851426583,-0.235,,,,1787896693851426583,1.4087910765
1787896693859124922,-0.233,,,,1787896693859124922,1.4095609104
1787896693866823261,-0.24,,,,1787896693866823261,1.4103307443
1787896693874521600,-0.24,,,,1787896693874521600,1.4111005782
1787896693882219939,-0.226,,,,1787896693882219939,1.4118704121
1787896693889918278,-0.211,,,,1787896693889918278,1.412640246
1787896693897616617,-0.209,,,,1787896693897616617,1.4134100799
1787896693905314956,-0.209,,,,1787896693905314956,1.4141799138
1787896693913013295,-0.211,,,,1787896693913013295,1.4149497477
1787896693920711634,-0.214,,,,1787896693920711634,1.4157195816
1787896693928409973,-0.214,,,,1787896693928409973,1.4164894155
1787896693936108312,-0.209,,,,1787896693936108312,1.4172592494
1787896693943806651,-0.204,,,,1787896693943806651,1.4180290833
1787896693951504990,-0.199,,,,1787896693951504990,1.4187989172
1787896693959203329,-0.202,,,,1787896693959203329,1.4195687511
1787896693966901668,-0.197,,,,1787896693966901668,1.420338585
1787896693974600007,-0.175,,,,1787896693974600007,1.4211084189
1787896693982298346,-0.165,,,,1787896693982298346,1.4218782528
1787896693989996685,-0.182,,,,1787896693989996685,1.4226480867
1787896693997695024,-0.204,,,,1787896693997695024,1.4234179206
1787896694005393363,-0.211,,,,1787896694005393363,1.4241877545
1787896694013091702,-0.204,,,,1787896694013091702,1.4249575884
1787896694020790041,-0.197,,,,1787896694020790041,1.4257274223
1787896694028488380,-0.209,,,,1787896694028488380,1.4264972562
1787896694036186719,-0.221,,,,1787896694036186719,1.4272670901
1787896694043885058,-0.211,,,,1787896694043885058,1.428036924
1787896694051583397,-0.202,,,,1787896694051583397,1.4288067579
1787896694059281736,-0.214,,,,1787896694059281736,1.4295765918
1787896694066980075,-0.262,,,,1787896694066980075,1.4303464257
1787896694074678414,-0.252,,,,1787896694074678414,1.4311162596
1787896694082376753,0.04,,,,1787896694082376753,1.4318860935
1787896694090075092,0.584,,,,1787896694090075092,1.4326559274
1787896694097773431,0.851,,,,1787896694097773431,1.4334257613
1787896694105471770,0.312,,,,1787896694105471770,1.4341955952
1787896694113170109,-0.581,,,,1787896694113170109,1.4349654291
1787896694120868448,-0.769,,,,1787896694120868448,1.435735263
1787896694128566787,-0.406,,,,1787896694128566787,1.4365050969
1787896694136265126,-0.293,,,,1787896694136265126,1.4372749308
1787896694143963465,-0.327,,,,1787896694143963465,1.4380447647
1787896694151661804,-0.242,,,,1787896694151661804,1.4388145986
1787896694159360143,-0.204,,,,1787896694159360143,1.4395844325
1787896694167058482,-0.226,,,,1787896694167058482,1.4403542664
1787896694174756821,-0.216,,,,1787896694174756821,1.4411241003
1787896694182455160,-0.197,,,,1787896694182455160,1.4418939342
1787896694190153499,-0.204,,,,1787896694190153499,1.4426637681
1787896694197851838,-0.209,,,,1787896694197851838,1.443433602
1787896694205550177,-0.204,,,,1787896694205550177,1.4442034359
1787896694213248516,-0.197,,,,1787896694213248516,1.4449732698
1787896694220946855,-0.192,,,,1787896694220946855,1.4457431037
1787896694228645194,-0.187,,,,1787896694228645194,1.4465129376
1787896694236343533,-0.177,,,,1787896694236343533,1.4472827715
1787896694244041872,-0.168,,,,1787896694244041872,1.4480526054
1787896694251740211,-0.158,,,,1787896694251740211,1.4488224393
1787896694259438550,-0.146,,,,1787896694259438550,1.4495922732
1787896694267136889,-0.139,,,,1787896694267136889,1.4503621071
1787896694274835228,-0.125,,,,1787896694274835228,1.451131941
1787896694282533567,-0.108,,,,1787896694282533567,1.4519017749
1787896694290231906,-0.091,,,,1787896694290231906,1.4526716088
1787896694297930245,-0.069,,,,1787896694297930245,1.4534414427
1787896694305628584,-0.048,,,,1787896694305628584,1.4542112766
1787896694313326923,-0.033,,,,1787896694313326923,1.4549811105
1787896694321025262,-0.028,,,,1787896694321025262,1.4557509444
1787896694328723601,-0.033,,,,1787896694328723601,1.4565207783
1787896694336421940,-0.048,,,,1787896694336421940,1.4572906122
1787896694344120279,-0.062,,,,1787896694344120279,1.4580604461
1787896694351818618,-0.076,,,,1787896694351818618,1.45883028
1787896694359516957,-0.096,,,,1787896694359516957,1.4596001139
1787896694367215296,-0.125,,,,1787896694367215296,1.4603699478
1787896694374913684,-0.151,,,,1787896694374913684,1.4611397866
1787896694382611884,-0.182,,,,1787896694382611884,1.4619096066
1787896694390310084,-0.218,,,,1787896694390310084,1.4626794266
1787896694398008284,-0.242,,,,1787896694398008284,1.4634492466
1787896694405706484,-0.259,,,,1787896694405706484,1.4642190666
1787896694413404684,-0.281,,,,1787896694413404684,1.4649888866
1787896694421102884,-0.298,,,,1787896694421102884,1.4657587066
1787896694428801084,-0.298,,,,1787896694428801084,1.4665285266
1787896694436499284,-0.298,,,,1787896694436499284,1.4672983466
1787896694444197484,-0.3,,,,1787896694444197484,1.4680681666
1787896694451895684,-0.298,,,,1787896694451895684,1.4688379866
