UNIX Timestamp,ECG,HR,RR,Marker,time,norm_time
1776408881179728984,0.056,,,,1776408881179728984,0.0
1776408881187420774,0.036,,,,1776408881187420774,0.000769179
1776408881195112564,0.039,,,,1776408881195112564,0.001538358
1776408881202804354,0.041,,,,1776408881202804354,0.002307537
1776408881210496144,0.044,,,,1776408881210496144,0.003076716
1776408881218187934,0.061,,,,1776408881218187934,0.003845895
1776408881225879724,0.139,,,,1776408881225879724,0.004615074
1776408881233571514,0.476,,,,1776408881233571514,0.005384253
1776408881241263304,1.138,,,,1776408881241263304,0.006153432
1776408881248955094,1.354,,,,1776408881248955094,0.006922611
1776408881256646884,0.176,,,,1776408881256646884,0.00769179
1776408881264338674,-1.425,,,,1776408881264338674,0.008460969
1776408881272030464,-1.57,,,,1776408881272030464,0.009230148
1776408881279722254,-0.726,,,,1776408881279722254,0.009999327
1776408881287414044,-0.336,,,,1776408881287414044,0.010768506
1776408881295105834,-0.149,,,,1776408881295105834,0.011537685
1776408881302797624,0.176,,,,1776408881302797624,0.012306864
1776408881310489414,0.242,,,,1776408881310489414,0.013076043
1776408881318181204,0.169,,,,1776408881318181204,0.013845222
1776408881325872994,0.233,,,,1776408881325872994,0.014614401
1776408881333564784,0.274,,,,1776408881333564784,0.01538358
1776408881341256574,0.24,,,,1776408881341256574,0.016152759
1776408881348948364,0.242,,,,1776408881348948364,0.016921938
1776408881356640154,0.277,,,,1776408881356640154,0.017691117
1776408881364331944,0.296,,,,1776408881364331944,0.018460296
1776408881372023734,0.294,,,,1776408881372023734,0.019229475
1776408881379715524,0.296,,,,1776408881379715524,0.019998654
1776408881387407314,0.309,,,,1776408881387407314,0.020767833
1776408881395099104,0.316,,,,1776408881395099104,0.021537012
1776408881402790894,0.323,,,,1776408881402790894,0.022306191
1776408881410482684,0.333,,,,1776408881410482684,0.02307537
1776408881418174474,0.341,,,,1776408881418174474,0.023844549
1776408881425866264,0.345,,,,1776408881425866264,0.024613728
1776408881433558054,0.358,,,,1776408881433558054,0.025382907
1776408881441249844,0.385,,,,1776408881441249844,0.026152086
1776408881448941634,0.404,,,,1776408881448941634,0.026921265
1776408881456633424,0.397,,,,1776408881456633424,0.027690444
1776408881464325214,0.392,,,,1776408881464325214,0.028459623
1776408881472017004,0.39,,,,1776408881472017004,0.029228802
1776408881479708794,0.365,,,,1776408881479708794,0.029997981
1776408881487400584,0.338,,,,1776408881487400584,0.03076716
1776408881495092374,0.306,,,,1776408881495092374,0.031536339
1776408881502784164,0.257,,,,1776408881502784164,0.032305518
1776408881510475954,0.223,,,,1776408881510475954,0.033074697
1776408881518167744,0.196,,,,1776408881518167744,0.033843876
1776408881525859534,0.147,,,,1776408881525859534,0.034613055
1776408881533551324,0.098,,,,1776408881533551324,0.035382234
1776408881541243114,0.063,,,,1776408881541243114,0.036151413
1776408881548934904,0.034,,,,1776408881548934904,0.036920592
1776408881556626694,0.012,,,,1776408881556626694,0.037689771
1776408881564318484,0.004,,,,1776408881564318484,0.03845895
1776408881572010274,-0.002,,,,1776408881572010274,0.039228129
1776408881579702064,-0.014,,,,1776408881579702064,0.039997308
1776408881587393854,-0.019,,,,1776408881587393854,0.040766487
1776408881595085644,-0.009,,,,1776408881595085644,0.041535666
1776408881602777434,-0.002,,,,1776408881602777434,0.042304845
1776408881610469224,0.002,,,,1776408881610469224,0.043074024
1776408881618161014,0.004,,,,1776408881618161014,0.043843203
1776408881625852804,0.002,,,,1776408881625852804,0.044612382
1776408881633544594,0.002,,,,1776408881633544594,0.045381561
1776408881641236384,0.014,,,,1776408881641236384,0.04615074
1776408881648928174,0.019,,,,1776408881648928174,0.046919919
1776408881656619964,0.026,,,,1776408881656619964,0.047689098
1776408881664311754,0.041,,,,1776408881664311754,0.048458277
1776408881672003544,0.041,,,,1776408881672003544,0.049227456
1776408881679695334,0.031,,,,1776408881679695334,0.049996635
1776408881687387124,0.026,,,,1776408881687387124,0.050765814
1776408881695078914,0.022,,,,1776408881695078914,0.051534993
1776408881702770704,0.014,,,,1776408881702770704,0.052304172
1776408881710462494,0.024,,,,1776408881710462494,0.053073351
1776408881718154284,0.031,,,,1776408881718154284,0.05384253
1776408881725846074,0.017,,,,1776408881725846074,0.054611709
1776408881733537864,0.004,,,,1776408881733537864,0.055380888
1776408881741229666,0.004,76.0,,,1776408881741229666,0.0561500682
1776408881748921456,0.0,,,,1776408881748921456,0.0569192472
1776408881756613246,0.002,,,,1776408881756613246,0.0576884262
1776408881764305036,0.014,,,,1776408881764305036,0.0584576052
1776408881771996826,0.014,,,,1776408881771996826,0.0592267842
1776408881779688616,0.009,,791.0,,1776408881779688616,0.0599959632
1776408881787380406,0.014,,,,1776408881787380406,0.0607651422
1776408881795072196,0.024,,,,1776408881795072196,0.0615343212
1776408881802763986,0.022,,,,1776408881802763986,0.0623035002
1776408881810455776,0.026,,,,1776408881810455776,0.0630726792
1776408881818147566,0.039,,,,1776408881818147566,0.0638418582
1776408881825839356,0.031,,,,1776408881825839356,0.0646110372
1776408881833531146,0.017,,,,1776408881833531146,0.0653802162
1776408881841222936,0.026,,,,1776408881841222936,0.0661493952
1776408881848914726,0.036,,,,1776408881848914726,0.0669185742
1776408881856606516,0.034,,,,1776408881856606516,0.0676877532
1776408881864298306,0.041,,,,1776408881864298306,0.0684569322
1776408881871990096,0.051,,,,1776408881871990096,0.0692261112
1776408881879681886,0.049,,,,1776408881879681886,0.0699952902
1776408881887373676,0.049,,,,1776408881887373676,0.0707644692
1776408881895065466,0.058,,,,1776408881895065466,0.0715336482
1776408881902757256,0.068,,,,1776408881902757256,0.0723028272
1776408881910449046,0.09,,,,1776408881910449046,0.0730720062
1776408881918140836,0.107,,,,1776408881918140836,0.0738411852
1776408881925832626,0.098,,,,1776408881925832626,0.0746103642
1776408881933524416,0.085,,,,1776408881933524416,0.0753795432
1776408881941216206,0.088,,,,1776408881941216206,0.0761487222
1776408881948907996,0.085,,,,1776408881948907996,0.0769179012
1776408881956599786,0.071,,,,1776408881956599786,0.0776870802
1776408881964291576,0.056,,,,1776408881964291576,0.0784562592
1776408881971983366,0.053,,,,1776408881971983366,0.0792254382
1776408881979675156,0.053,,,,1776408881979675156,0.0799946172
1776408881987366946,0.053,,,,1776408881987366946,0.0807637962
1776408881995058736,0.063,,,,1776408881995058736,0.0815329752
1776408882002750526,0.078,,,,1776408882002750526,0.0823021542
1776408882010442316,0.149,,,,1776408882010442316,0.0830713332
1776408882018134106,0.512,,,,1776408882018134106,0.0838405122
1776408882025825896,1.202,,,,1776408882025825896,0.0846096912
1776408882033517686,1.386,,,,1776408882033517686,0.0853788702
1776408882041209476,0.117,,,,1776408882041209476,0.0861480492
1776408882048901266,-1.501,,,,1776408882048901266,0.0869172282
1776408882056593056,-1.575,,,,1776408882056593056,0.0876864072
1776408882064284846,-0.733,,,,1776408882064284846,0.0884555862
1776408882071976636,-0.363,,,,1776408882071976636,0.0892247652
1776408882079668426,-0.11,,,,1776408882079668426,0.0899939442
1776408882087360216,0.255,,,,1776408882087360216,0.0907631232
1776408882095052006,0.284,,,,1776408882095052006,0.0915323022
1776408882102743796,0.201,,,,1776408882102743796,0.0923014812
1776408882110435586,0.277,,,,1776408882110435586,0.0930706602
1776408882118127376,0.311,,,,1776408882118127376,0.0938398392
1776408882125819166,0.282,,,,1776408882125819166,0.0946090182
1776408882133510956,0.309,,,,1776408882133510956,0.0953781972
1776408882141202746,0.328,,,,1776408882141202746,0.0961473762
1776408882148894536,0.314,,,,1776408882148894536,0.0969165552
1776408882156586326,0.314,,,,1776408882156586326,0.0976857342
1776408882164278116,0.321,,,,1776408882164278116,0.0984549132
1776408882171969906,0.323,,,,1776408882171969906,0.0992240922
1776408882179661696,0.35,,,,1776408882179661696,0.0999932712
1776408882187353486,0.377,,,,1776408882187353486,0.1007624502
1776408882195045276,0.365,,,,1776408882195045276,0.1015316292
1776408882202737066,0.358,,,,1776408882202737066,0.1023008082
1776408882210428856,0.38,,,,1776408882210428856,0.1030699872
1776408882218120646,0.397,,,,1776408882218120646,0.1038391662
1776408882225812436,0.399,,,,1776408882225812436,0.1046083452
1776408882233504226,0.399,,,,1776408882233504226,0.1053775242
1776408882241196016,0.409,,,,1776408882241196016,0.1061467032
1776408882248887806,0.426,,,,1776408882248887806,0.1069158822
1776408882256579596,0.419,,,,1776408882256579596,0.1076850612
1776408882264271386,0.387,,,,1776408882264271386,0.1084542402
1776408882271963176,0.353,,,,1776408882271963176,0.1092234192
1776408882279654966,0.331,,,,1776408882279654966,0.1099925982
1776408882287346756,0.306,,,,1776408882287346756,0.1107617772
1776408882295038546,0.264,,,,1776408882295038546,0.1115309562
1776408882302730348,0.211,,,,1776408882302730348,0.1123001364
1776408882310422138,0.157,,,,1776408882310422138,0.1130693154
1776408882318113928,0.107,,,,1776408882318113928,0.1138384944
1776408882325805718,0.073,,,,1776408882325805718,0.1146076734
1776408882333497508,0.039,,,,1776408882333497508,0.1153768524
1776408882341189298,0.009,,,,1776408882341189298,0.1161460314
1776408882348881088,0.0,,,,1776408882348881088,0.1169152104
1776408882356572878,-0.004,,,,1776408882356572878,0.1176843894
1776408882364264668,-0.017,,,,1776408882364264668,0.1184535684
1776408882371956458,-0.022,,,,1776408882371956458,0.1192227474
1776408882379648248,-0.019,,,,1776408882379648248,0.1199919264
1776408882387340038,-0.012,,,,1776408882387340038,0.1207611054
1776408882395031828,0.002,,,,1776408882395031828,0.1215302844
1776408882402723618,0.009,,,,1776408882402723618,0.1222994634
1776408882410415408,0.004,,,,1776408882410415408,0.1230686424
1776408882418107198,0.007,,,,1776408882418107198,0.1238378214
1776408882425798988,0.014,,,,1776408882425798988,0.1246070004
1776408882433490778,0.017,,,,1776408882433490778,0.1253761794
1776408882441182568,0.024,,,,1776408882441182568,0.1261453584
1776408882448874358,0.034,,,,1776408882448874358,0.1269145374
1776408882456566148,0.031,,,,1776408882456566148,0.1276837164
1776408882464257938,0.029,,,,1776408882464257938,0.1284528954
1776408882471949728,0.034,,,,1776408882471949728,0.1292220744
1776408882479641518,0.031,,,,1776408882479641518,0.1299912534
1776408882487333308,0.022,,,,1776408882487333308,0.1307604324
1776408882495025098,0.029,,,,1776408882495025098,0.1315296114
1776408882502716888,0.044,,,,1776408882502716888,0.1322987904
1776408882510408678,0.036,,,,1776408882510408678,0.1330679694
1776408882518100468,0.026,,,,1776408882518100468,0.1338371484
1776408882525792258,0.034,,,,1776408882525792258,0.1346063274
1776408882533484048,0.031,,,,1776408882533484048,0.1353755064
1776408882541175838,0.026,,,,1776408882541175838,0.1361446854
1776408882548867628,0.039,,,,1776408882548867628,0.1369138644
1776408882556559418,0.044,,,,1776408882556559418,0.1376830434
1776408882564251208,0.039,,,,1776408882564251208,0.1384522224
1776408882571942998,0.036,,,,1776408882571942998,0.1392214014
1776408882579634788,0.044,,,,1776408882579634788,0.1399905804
1776408882587326578,0.051,,805.0,,1776408882587326578,0.1407597594
1776408882595018368,0.049,,,,1776408882595018368,0.1415289384
1776408882602710158,0.049,,,,1776408882602710158,0.1422981174
1776408882610401948,0.056,,,,1776408882610401948,0.1430672964
1776408882618093738,0.061,,,,1776408882618093738,0.1438364754
1776408882625785528,0.063,,,,1776408882625785528,0.1446056544
1776408882633477318,0.068,,,,1776408882633477318,0.1453748334
1776408882641169108,0.073,,,,1776408882641169108,0.1461440124
1776408882648860898,0.071,,,,1776408882648860898,0.1469131914
1776408882656552688,0.068,,,,1776408882656552688,0.1476823704
1776408882664244478,0.071,,,,1776408882664244478,0.1484515494
1776408882671936268,0.076,,,,1776408882671936268,0.1492207284
1776408882679628058,0.078,,,,1776408882679628058,0.1499899074
1776408882687319848,0.08,,,,1776408882687319848,0.1507590864
1776408882695011638,0.085,,,,1776408882695011638,0.1515282654
1776408882702703428,0.078,,,,1776408882702703428,0.1522974444
1776408882710395218,0.073,,,,1776408882710395218,0.1530666234
1776408882718087008,0.08,,,,1776408882718087008,0.1538358024
1776408882725778798,0.09,,,,1776408882725778798,0.1546049814
1776408882733470588,0.103,,,,1776408882733470588,0.1553741604
1776408882741162378,0.122,,,,1776408882741162378,0.1561433394
1776408882748854168,0.122,,,,1776408882748854168,0.1569125184
1776408882756545958,0.107,,,,1776408882756545958,0.1576816974
1776408882764237748,0.11,,,,1776408882764237748,0.1584508764
1776408882771929538,0.112,,,,1776408882771929538,0.1592200554
1776408882779621328,0.098,,,,1776408882779621328,0.1599892344
1776408882787313118,0.085,,,,1776408882787313118,0.1607584134
1776408882795004908,0.071,,,,1776408882795004908,0.1615275924
1776408882802696698,0.063,,,,1776408882802696698,0.1622967714
1776408882810388488,0.076,,,,1776408882810388488,0.1630659504
1776408882818080278,0.085,,,,1776408882818080278,0.1638351294
1776408882825772068,0.08,,,,1776408882825772068,0.1646043084
1776408882833463858,0.085,,,,1776408882833463858,0.1653734874
1776408882841155648,0.166,,,,1776408882841155648,0.1661426664
1776408882848847438,0.537,,,,1776408882848847438,0.1669118454
1776408882856539228,1.212,,,,1776408882856539228,0.1676810244
1776408882864231030,1.354,76.0,,,1776408882864231030,0.1684502046
1776408882871922820,0.088,,,,1776408882871922820,0.1692193836
1776408882879614610,-1.464,,,,1776408882879614610,0.1699885626
1776408882887306400,-1.508,,,,1776408882887306400,0.1707577416
1776408882894998190,-0.669,,,,1776408882894998190,0.1715269206
1776408882902689980,-0.287,,,,1776408882902689980,0.1722960996
1776408882910381770,-0.056,,,,1776408882910381770,0.1730652786
1776408882918073560,0.247,,,,1776408882918073560,0.1738344576
1776408882925765350,0.262,,,,1776408882925765350,0.1746036366
1776408882933457140,0.198,,,,1776408882933457140,0.1753728156
1776408882941148930,0.274,,,,1776408882941148930,0.1761419946
1776408882948840720,0.301,,,,1776408882948840720,0.1769111736
1776408882956532510,0.267,,,,1776408882956532510,0.1776803526
1776408882964224300,0.279,,,,1776408882964224300,0.1784495316
1776408882971916090,0.294,,,,1776408882971916090,0.1792187106
1776408882979607880,0.282,,,,1776408882979607880,0.1799878896
1776408882987299670,0.282,,,,1776408882987299670,0.1807570686
1776408882994991460,0.296,,,,1776408882994991460,0.1815262476
1776408883002683250,0.301,,,,1776408883002683250,0.1822954266
1776408883010375040,0.306,,,,1776408883010375040,0.1830646056
1776408883018066830,0.316,,,,1776408883018066830,0.1838337846
1776408883025758620,0.331,,,,1776408883025758620,0.1846029636
1776408883033450410,0.348,,,,1776408883033450410,0.1853721426
1776408883041142200,0.358,,,,1776408883041142200,0.1861413216
1776408883048833990,0.37,,,,1776408883048833990,0.1869105006
1776408883056525780,0.385,,,,1776408883056525780,0.1876796796
1776408883064217570,0.397,,,,1776408883064217570,0.1884488586
1776408883071909360,0.399,,,,1776408883071909360,0.1892180376
1776408883079601150,0.395,,,,1776408883079601150,0.1899872166
1776408883087292940,0.385,,,,1776408883087292940,0.1907563956
1776408883094984730,0.363,,,,1776408883094984730,0.1915255746
1776408883102676520,0.331,,,,1776408883102676520,0.1922947536
1776408883110368310,0.296,,,,1776408883110368310,0.1930639326
1776408883118060100,0.255,,,,1776408883118060100,0.1938331116
1776408883125751890,0.206,,,,1776408883125751890,0.1946022906
1776408883133443680,0.169,,,,1776408883133443680,0.1953714696
1776408883141135470,0.142,,,,1776408883141135470,0.1961406486
1776408883148827260,0.1,,,,1776408883148827260,0.1969098276
1776408883156519050,0.061,,,,1776408883156519050,0.1976790066
1776408883164210840,0.036,,,,1776408883164210840,0.1984481856
1776408883171902630,0.019,,,,1776408883171902630,0.1992173646
1776408883179594420,0.004,,,,1776408883179594420,0.1999865436
1776408883187286210,-0.004,,,,1776408883187286210,0.2007557226
1776408883194978000,-0.022,,,,1776408883194978000,0.2015249016
1776408883202669790,-0.041,,,,1776408883202669790,0.2022940806
1776408883210361580,-0.051,,,,1776408883210361580,0.2030632596
1776408883218053370,-0.044,,,,1776408883218053370,0.2038324386
1776408883225745160,-0.034,,,,1776408883225745160,0.2046016176
1776408883233436950,-0.031,,,,1776408883233436950,0.2053707966
1776408883241128740,-0.029,,,,1776408883241128740,0.2061399756
1776408883248820530,-0.017,,,,1776408883248820530,0.2069091546
1776408883256512320,-0.004,,,,1776408883256512320,0.2076783336
1776408883264204110,0.002,,,,1776408883264204110,0.2084475126
1776408883271895900,0.012,,,,1776408883271895900,0.2092166916
1776408883279587690,0.019,,,,1776408883279587690,0.2099858706
1776408883287279480,0.019,,,,1776408883287279480,0.2107550496
1776408883294971270,0.017,,,,1776408883294971270,0.2115242286
1776408883302663060,0.022,,,,1776408883302663060,0.2122934076
1776408883310354850,0.026,,,,1776408883310354850,0.2130625866
1776408883318046640,0.024,,,,1776408883318046640,0.2138317656
1776408883325738430,0.019,,,,1776408883325738430,0.2146009446
1776408883333430220,0.022,,,,1776408883333430220,0.2153701236
1776408883341122010,0.024,,,,1776408883341122010,0.2161393026
1776408883348813800,0.024,,,,1776408883348813800,0.2169084816
1776408883356505590,0.022,,,,1776408883356505590,0.2176776606
1776408883364197380,0.024,,,,1776408883364197380,0.2184468396
1776408883371889170,0.029,,,,1776408883371889170,0.2192160186
1776408883379580960,0.029,,,,1776408883379580960,0.2199851976
1776408883387272750,0.029,,801.0,,1776408883387272750,0.2207543766
1776408883394964540,0.029,,,,1776408883394964540,0.2215235556
1776408883402656330,0.029,,,,1776408883402656330,0.2222927346
1776408883410348120,0.026,,,,1776408883410348120,0.2230619136
1776408883418039910,0.034,,,,1776408883418039910,0.2238310926
1776408883425731712,0.044,76.0,,,1776408883425731712,0.2246002728
1776408883433423502,0.041,,,,1776408883433423502,0.2253694518
1776408883441115292,0.041,,,,1776408883441115292,0.2261386308
1776408883448807082,0.046,,,,1776408883448807082,0.2269078098
1776408883456498872,0.051,,,,1776408883456498872,0.2276769888
1776408883464190662,0.046,,,,1776408883464190662,0.2284461678
1776408883471882452,0.046,,,,1776408883471882452,0.2292153468
1776408883479574242,0.044,,,,1776408883479574242,0.2299845258
1776408883487266032,0.039,,,,1776408883487266032,0.2307537048
1776408883494957822,0.039,,,,1776408883494957822,0.2315228838
1776408883502649612,0.046,,,,1776408883502649612,0.2322920628
1776408883510341402,0.058,,,,1776408883510341402,0.2330612418
1776408883518033192,0.063,,,,1776408883518033192,0.2338304208
1776408883525724982,0.063,,,,1776408883525724982,0.2345995998
1776408883533416772,0.061,,,,1776408883533416772,0.2353687788
1776408883541108562,0.066,,,,1776408883541108562,0.2361379578
1776408883548800352,0.083,,,,1776408883548800352,0.2369071368
1776408883556492142,0.098,,,,1776408883556492142,0.2376763158
1776408883564183932,0.103,,,,1776408883564183932,0.2384454948
1776408883571875722,0.1,,,,1776408883571875722,0.2392146738
1776408883579567512,0.088,,,,1776408883579567512,0.2399838528
1776408883587259302,0.068,,,,1776408883587259302,0.2407530318
1776408883594951092,0.056,,,,1776408883594951092,0.2415222108
1776408883602642882,0.051,,,,1776408883602642882,0.2422913898
1776408883610334672,0.051,,,,1776408883610334672,0.2430605688
1776408883618026462,0.058,,,,1776408883618026462,0.2438297478
1776408883625718252,0.071,,,,1776408883625718252,0.2445989268
1776408883633410042,0.073,,,,1776408883633410042,0.2453681058
1776408883641101832,0.066,,,,1776408883641101832,0.2461372848
1776408883648793622,0.13,,,,1776408883648793622,0.2469064638
1776408883656485412,0.441,,,,1776408883656485412,0.2476756428
1776408883664177202,1.084,,,,1776408883664177202,0.2484448218
1776408883671868992,1.388,,,,1776408883671868992,0.2492140008
1776408883679560782,0.338,,,,1776408883679560782,0.2499831798
1776408883687252572,-1.307,,,,1776408883687252572,0.2507523588
1776408883694944362,-1.597,,,,1776408883694944362,0.2515215378
1776408883702636152,-0.802,,,,1776408883702636152,0.2522907168
1776408883710327942,-0.39,,,,1776408883710327942,0.2530598958
1776408883718019732,-0.188,,,,1776408883718019732,0.2538290748
1776408883725711522,0.171,,,,1776408883725711522,0.2545982538
1776408883733403312,0.264,,,,1776408883733403312,0.2553674328
1776408883741095102,0.181,,,,1776408883741095102,0.2561366118
1776408883748786892,0.235,,,,1776408883748786892,0.2569057908
1776408883756478682,0.289,,,,1776408883756478682,0.2576749698
1776408883764170472,0.262,,,,1776408883764170472,0.2584441488
1776408883771862262,0.267,,,,1776408883771862262,0.2592133278
1776408883779554052,0.289,,,,1776408883779554052,0.2599825068
1776408883787245842,0.284,,,,1776408883787245842,0.2607516858
1776408883794937632,0.289,,,,1776408883794937632,0.2615208648
1776408883802629422,0.311,,,,1776408883802629422,0.2622900438
1776408883810321212,0.318,,,,1776408883810321212,0.2630592228
1776408883818013002,0.316,,,,1776408883818013002,0.2638284018
1776408883825704792,0.321,,,,1776408883825704792,0.2645975808
1776408883833396582,0.338,,,,1776408883833396582,0.2653667598
1776408883841088372,0.353,,,,1776408883841088372,0.2661359388
1776408883848780162,0.363,,,,1776408883848780162,0.2669051178
1776408883856471952,0.375,,,,1776408883856471952,0.2676742968
1776408883864163742,0.385,,,,1776408883864163742,0.2684434758
1776408883871855532,0.387,,,,1776408883871855532,0.2692126548
1776408883879547322,0.392,,,,1776408883879547322,0.2699818338
1776408883887239112,0.399,,,,1776408883887239112,0.2707510128
1776408883894930902,0.395,,,,1776408883894930902,0.2715201918
1776408883902622692,0.368,,,,1776408883902622692,0.2722893708
1776408883910314482,0.336,,,,1776408883910314482,0.2730585498
1776408883918006272,0.299,,,,1776408883918006272,0.2738277288
1776408883925698062,0.26,,,,1776408883925698062,0.2745969078
1776408883933389852,0.218,,,,1776408883933389852,0.2753660868
1776408883941081642,0.179,,,,1776408883941081642,0.2761352658
1776408883948773432,0.132,,,,1776408883948773432,0.2769044448
1776408883956465222,0.085,,,,1776408883956465222,0.2776736238
1776408883964157012,0.053,,,,1776408883964157012,0.2784428028
1776408883971848802,0.031,,,,1776408883971848802,0.2792119818
1776408883979540592,0.012,,,,1776408883979540592,0.2799811608
1776408883987232394,-0.002,,,,1776408883987232394,0.280750341
1776408883994924184,-0.007,,,,1776408883994924184,0.28151952
1776408884002615974,-0.014,,,,1776408884002615974,0.282288699
1776408884010307764,-0.022,,,,1776408884010307764,0.283057878
1776408884017999554,-0.024,,,,1776408884017999554,0.283827057
1776408884025691344,-0.019,,,,1776408884025691344,0.284596236
1776408884033383134,-0.007,,,,1776408884033383134,0.285365415
1776408884041074924,-0.004,,,,1776408884041074924,0.286134594
1776408884048766714,-0.002,,,,1776408884048766714,0.286903773
1776408884056458504,0.009,,,,1776408884056458504,0.287672952
1776408884064150294,0.019,,,,1776408884064150294,0.288442131
1776408884071842084,0.022,,,,1776408884071842084,0.28921131
1776408884079533874,0.024,,,,1776408884079533874,0.289980489
1776408884087225664,0.029,,,,1776408884087225664,0.290749668
1776408884094917454,0.034,,,,1776408884094917454,0.291518847
1776408884102609244,0.044,,,,1776408884102609244,0.292288026
1776408884110301034,0.041,,,,1776408884110301034,0.293057205
1776408884117992824,0.024,,,,1776408884117992824,0.293826384
1776408884125684614,0.019,,,,1776408884125684614,0.294595563
1776408884133376404,0.024,,,,1776408884133376404,0.295364742
1776408884141068194,0.024,,,,1776408884141068194,0.296133921
1776408884148759984,0.024,,,,1776408884148759984,0.2969031
1776408884156451774,0.026,,,,1776408884156451774,0.297672279
1776408884164143564,0.026,,,,1776408884164143564,0.298441458
1776408884171835354,0.022,,,,1776408884171835354,0.299210637
1776408884179527144,0.024,,,,1776408884179527144,0.299979816
1776408884187218934,0.034,,,,1776408884187218934,0.300748995
1776408884194910724,0.034,,,,1776408884194910724,0.301518174
1776408884202602514,0.024,,,,1776408884202602514,0.302287353
1776408884210294304,0.004,,,,1776408884210294304,0.303056532
1776408884217986094,-0.004,,,,1776408884217986094,0.303825711
1776408884225677884,0.002,,,,1776408884225677884,0.30459489
1776408884233369674,0.009,,,,1776408884233369674,0.305364069
1776408884241061464,0.017,,,,1776408884241061464,0.306133248
1776408884248753254,0.022,,,,1776408884248753254,0.306902427
1776408884256445044,0.029,,868.0,,1776408884256445044,0.307671606
1776408884264136834,0.036,,,,1776408884264136834,0.308440785
1776408884271828624,0.044,,,,1776408884271828624,0.309209964
1776408884279520414,0.046,,,,1776408884279520414,0.309979143
1776408884287212204,0.051,,,,1776408884287212204,0.310748322
1776408884294903994,0.068,,,,1776408884294903994,0.311517501
1776408884302595784,0.088,,,,1776408884302595784,0.31228668
1776408884310287574,0.095,,,,1776408884310287574,0.313055859
1776408884317979364,0.09,,,,1776408884317979364,0.313825038
1776408884325671154,0.09,,,,1776408884325671154,0.314594217
1776408884333362944,0.085,,,,1776408884333362944,0.315363396
1776408884341054734,0.076,,,,1776408884341054734,0.316132575
1776408884348746524,0.073,,,,1776408884348746524,0.316901754
1776408884356438314,0.061,,,,1776408884356438314,0.317670933
1776408884364130104,0.053,,,,1776408884364130104,0.318440112
1776408884371821894,0.061,,,,1776408884371821894,0.319209291
1776408884379513684,0.071,,,,1776408884379513684,0.31997847
1776408884387205474,0.073,,,,1776408884387205474,0.320747649
1776408884394897264,0.073,,,,1776408884394897264,0.321516828
1776408884402589054,0.137,,,,1776408884402589054,0.322286007
1776408884410280844,0.461,,,,1776408884410280844,0.323055186
1776408884417972634,1.128,,,,1776408884417972634,0.323824365
1776408884425664424,1.423,,,,1776408884425664424,0.324593544
1776408884433356214,0.306,,,,1776408884433356214,0.325362723
1776408884441048004,-1.381,,,,1776408884441048004,0.326131902
1776408884448739794,-1.636,,,,1776408884448739794,0.326901081
1776408884456431584,-0.804,,,,1776408884456431584,0.32767026
1776408884464123374,-0.377,,,,1776408884464123374,0.328439439
1776408884471815164,-0.152,,,,1776408884471815164,0.329208618
1776408884479506954,0.206,,,,1776408884479506954,0.329977797
1776408884487198744,0.282,,,,1776408884487198744,0.330746976
1776408884494890534,0.201,,,,1776408884494890534,0.331516155
1776408884502582324,0.264,,,,1776408884502582324,0.332285334
1776408884510274114,0.311,,,,1776408884510274114,0.333054513
1776408884517965904,0.279,,,,1776408884517965904,0.333823692
1776408884525657694,0.291,,,,1776408884525657694,0.334592871
1776408884533349484,0.318,,,,1776408884533349484,0.33536205
1776408884541041274,0.314,,,,1776408884541041274,0.336131229
1776408884548733076,0.311,75.0,,,1776408884548733076,0.3369004092
1776408884556424866,0.323,,,,1776408884556424866,0.3376695882
1776408884564116656,0.331,,,,1776408884564116656,0.3384387672
1776408884571808446,0.341,,,,1776408884571808446,0.3392079462
1776408884579500236,0.35,,,,1776408884579500236,0.3399771252
1776408884587192026,0.363,,,,1776408884587192026,0.3407463042
1776408884594883816,0.375,,,,1776408884594883816,0.3415154832
1776408884602575606,0.385,,,,1776408884602575606,0.3422846622
1776408884610267396,0.392,,,,1776408884610267396,0.3430538412
1776408884617959186,0.404,,,,1776408884617959186,0.3438230202
1776408884625650976,0.417,,,,1776408884625650976,0.3445921992
1776408884633342766,0.429,,,,1776408884633342766,0.3453613782
1776408884641034556,0.436,,,,1776408884641034556,0.3461305572
1776408884648726346,0.419,,,,1776408884648726346,0.3468997362
1776408884656418136,0.385,,,,1776408884656418136,0.3476689152
1776408884664109926,0.358,,,,1776408884664109926,0.3484380942
1776408884671801716,0.328,,,,1776408884671801716,0.3492072732
1776408884679493506,0.287,,,,1776408884679493506,0.3499764522
1776408884687185296,0.24,,,,1776408884687185296,0.3507456312
1776408884694877086,0.188,,,,1776408884694877086,0.3515148102
1776408884702568876,0.127,,,,1776408884702568876,0.3522839892
1776408884710260666,0.066,,,,1776408884710260666,0.3530531682
1776408884717952456,0.024,,,,1776408884717952456,0.3538223472
1776408884725644246,0.0,,,,1776408884725644246,0.3545915262
1776408884733336036,-0.017,,,,1776408884733336036,0.3553607052
1776408884741027826,-0.026,,,,1776408884741027826,0.3561298842
1776408884748719616,-0.026,,,,1776408884748719616,0.3568990632
1776408884756411406,-0.031,,,,1776408884756411406,0.3576682422
1776408884764103196,-0.034,,,,1776408884764103196,0.3584374212
1776408884771794986,-0.026,,,,1776408884771794986,0.3592066002
1776408884779486776,-0.017,,,,1776408884779486776,0.3599757792
1776408884787178566,-0.007,,,,1776408884787178566,0.3607449582
1776408884794870356,-0.002,,,,1776408884794870356,0.3615141372
1776408884802562146,-0.002,,,,1776408884802562146,0.3622833162
1776408884810253936,0.002,,,,1776408884810253936,0.3630524952
1776408884817945726,0.019,,,,1776408884817945726,0.3638216742
1776408884825637516,0.029,,,,1776408884825637516,0.3645908532
1776408884833329306,0.029,,,,1776408884833329306,0.3653600322
1776408884841021096,0.031,,,,1776408884841021096,0.3661292112
1776408884848712886,0.036,,,,1776408884848712886,0.3668983902
1776408884856404676,0.036,,,,1776408884856404676,0.3676675692
1776408884864096466,0.036,,,,1776408884864096466,0.3684367482
1776408884871788256,0.036,,,,1776408884871788256,0.3692059272
1776408884879480046,0.029,,,,1776408884879480046,0.3699751062
1776408884887171836,0.017,,,,1776408884887171836,0.3707442852
1776408884894863626,0.022,,,,1776408884894863626,0.3715134642
1776408884902555416,0.022,,,,1776408884902555416,0.3722826432
1776408884910247206,0.022,,,,1776408884910247206,0.3730518222
1776408884917938996,0.022,,,,1776408884917938996,0.3738210012
1776408884925630786,0.017,,,,1776408884925630786,0.3745901802
1776408884933322576,0.014,,,,1776408884933322576,0.3753593592
1776408884941014366,0.012,,,,1776408884941014366,0.3761285382
1776408884948706156,0.009,,,,1776408884948706156,0.3768977172
1776408884956397946,0.012,,,,1776408884956397946,0.3776668962
1776408884964089736,0.014,,,,1776408884964089736,0.3784360752
1776408884971781526,0.017,,,,1776408884971781526,0.3792052542
1776408884979473316,0.022,,,,1776408884979473316,0.3799744332
1776408884987165106,0.026,,,,1776408884987165106,0.3807436122
1776408884994856896,0.029,,,,1776408884994856896,0.3815127912
1776408885002548686,0.034,,,,1776408885002548686,0.3822819702
1776408885010240476,0.036,,,,1776408885010240476,0.3830511492
1776408885017932266,0.036,,,,1776408885017932266,0.3838203282
1776408885025624056,0.044,,,,1776408885025624056,0.3845895072
1776408885033315846,0.058,,,,1776408885033315846,0.3853586862
1776408885041007636,0.061,,784.0,,1776408885041007636,0.3861278652
1776408885048699426,0.058,,,,1776408885048699426,0.3868970442
1776408885056391216,0.066,,,,1776408885056391216,0.3876662232
1776408885064083006,0.08,,,,1776408885064083006,0.3884354022
1776408885071774796,0.09,,,,1776408885071774796,0.3892045812
1776408885079466586,0.103,,,,1776408885079466586,0.3899737602
1776408885087158376,0.11,,,,1776408885087158376,0.3907429392
1776408885094850166,0.105,,,,1776408885094850166,0.3915121182
1776408885102541956,0.1,,,,1776408885102541956,0.3922812972
1776408885110233758,0.09,,,,1776408885110233758,0.3930504774
1776408885117925548,0.08,,,,1776408885117925548,0.3938196564
1776408885125617338,0.073,,,,1776408885125617338,0.3945888354
1776408885133309128,0.068,,,,1776408885133309128,0.3953580144
1776408885141000918,0.068,,,,1776408885141000918,0.3961271934
1776408885148692708,0.071,,,,1776408885148692708,0.3968963724
1776408885156384498,0.071,,,,1776408885156384498,0.3976655514
1776408885164076288,0.076,,,,1776408885164076288,0.3984347304
1776408885171768078,0.083,,,,1776408885171768078,0.3992039094
1776408885179459868,0.176,,,,1776408885179459868,0.3999730884
1776408885187151658,0.579,,,,1776408885187151658,0.4007422674
1776408885194843448,1.246,,,,1776408885194843448,0.4015114464
1776408885202535238,1.263,,,,1776408885202535238,0.4022806254
1776408885210227028,-0.144,,,,1776408885210227028,0.4030498044
1776408885217918818,-1.636,,,,1776408885217918818,0.4038189834
1776408885225610608,-1.508,,,,1776408885225610608,0.4045881624
1776408885233302398,-0.664,,,,1776408885233302398,0.4053573414
1776408885240994188,-0.338,,,,1776408885240994188,0.4061265204
1776408885248685978,-0.085,,,,1776408885248685978,0.4068956994
1776408885256377768,0.22,,,,1776408885256377768,0.4076648784
1776408885264069558,0.215,,,,1776408885264069558,0.4084340574
1776408885271761348,0.166,,,,1776408885271761348,0.4092032364
1776408885279453138,0.245,,,,1776408885279453138,0.4099724154
1776408885287144928,0.26,,,,1776408885287144928,0.4107415944
1776408885294836718,0.23,,,,1776408885294836718,0.4115107734
1776408885302528508,0.257,,,,1776408885302528508,0.4122799524
1776408885310220298,0.282,,,,1776408885310220298,0.4130491314
1776408885317912088,0.279,,,,1776408885317912088,0.4138183104
1776408885325603878,0.291,,,,1776408885325603878,0.4145874894
1776408885333295668,0.301,,,,1776408885333295668,0.4153566684
1776408885340987458,0.299,,,,1776408885340987458,0.4161258474
1776408885348679248,0.306,,,,1776408885348679248,0.4168950264
1776408885356371038,0.326,,,,1776408885356371038,0.4176642054
1776408885364062828,0.338,,,,1776408885364062828,0.4184333844
1776408885371754618,0.341,,,,1776408885371754618,0.4192025634
1776408885379446408,0.35,,,,1776408885379446408,0.4199717424
1776408885387138198,0.372,,,,1776408885387138198,0.4207409214
1776408885394829988,0.395,,,,1776408885394829988,0.4215101004
1776408885402521778,0.397,,,,1776408885402521778,0.4222792794
1776408885410213568,0.402,,,,1776408885410213568,0.4230484584
1776408885417905358,0.402,,,,1776408885417905358,0.4238176374
1776408885425597148,0.382,,,,1776408885425597148,0.4245868164
1776408885433288938,0.353,,,,1776408885433288938,0.4253559954
1776408885440980728,0.326,,,,1776408885440980728,0.4261251744
1776408885448672518,0.296,,,,1776408885448672518,0.4268943534
1776408885456364308,0.257,,,,1776408885456364308,0.4276635324
1776408885464056098,0.22,,,,1776408885464056098,0.4284327114
1776408885471747888,0.179,,,,1776408885471747888,0.4292018904
1776408885479439678,0.134,,,,1776408885479439678,0.4299710694
1776408885487131468,0.098,,,,1776408885487131468,0.4307402484
1776408885494823258,0.068,,,,1776408885494823258,0.4315094274
1776408885502515048,0.041,,,,1776408885502515048,0.4322786064
1776408885510206838,0.026,,,,1776408885510206838,0.4330477854
1776408885517898628,0.024,,,,1776408885517898628,0.4338169644
1776408885525590418,0.014,,,,1776408885525590418,0.4345861434
1776408885533282208,0.004,,,,1776408885533282208,0.4353553224
1776408885540973998,0.004,,,,1776408885540973998,0.4361245014
1776408885548665788,0.009,,,,1776408885548665788,0.4368936804
1776408885556357578,0.017,,,,1776408885556357578,0.4376628594
1776408885564049368,0.029,,,,1776408885564049368,0.4384320384
1776408885571741158,0.034,,,,1776408885571741158,0.4392012174
1776408885579432948,0.031,,,,1776408885579432948,0.4399703964
1776408885587124738,0.031,,,,1776408885587124738,0.4407395754
1776408885594816528,0.039,,,,1776408885594816528,0.4415087544
1776408885602508318,0.051,,,,1776408885602508318,0.4422779334
1776408885610200108,0.058,,,,1776408885610200108,0.4430471124
1776408885617891898,0.056,,,,1776408885617891898,0.4438162914
1776408885625583688,0.051,,,,1776408885625583688,0.4445854704
1776408885633275478,0.051,,,,1776408885633275478,0.4453546494
1776408885640967268,0.053,,,,1776408885640967268,0.4461238284
1776408885648659058,0.053,,,,1776408885648659058,0.4468930074
1776408885656350848,0.046,,,,1776408885656350848,0.4476621864
1776408885664042638,0.034,,,,1776408885664042638,0.4484313654
1776408885671734440,0.026,75.0,,,1776408885671734440,0.4492005456
1776408885679426230,0.022,,,,1776408885679426230,0.4499697246
1776408885687118020,0.014,,,,1776408885687118020,0.4507389036
1776408885694809810,0.012,,,,1776408885694809810,0.4515080826
1776408885702501600,0.017,,,,1776408885702501600,0.4522772616
1776408885710193390,0.019,,,,1776408885710193390,0.4530464406
1776408885717885180,0.009,,,,1776408885717885180,0.4538156196
1776408885725576970,0.002,,,,1776408885725576970,0.4545847986
1776408885733268760,0.002,,,,1776408885733268760,0.4553539776
1776408885740960550,0.007,,,,1776408885740960550,0.4561231566
1776408885748652340,0.012,,,,1776408885748652340,0.4568923356
1776408885756344130,0.012,,,,1776408885756344130,0.4576615146
1776408885764035920,0.012,,,,1776408885764035920,0.4584306936
1776408885771727710,0.007,,,,1776408885771727710,0.4591998726
1776408885779419500,0.002,,,,1776408885779419500,0.4599690516
1776408885787111290,0.007,,,,1776408885787111290,0.4607382306
1776408885794803080,0.019,,,,1776408885794803080,0.4615074096
1776408885802494870,0.026,,,,1776408885802494870,0.4622765886
1776408885810186660,0.029,,,,1776408885810186660,0.4630457676
1776408885817878450,0.034,,,,1776408885817878450,0.4638149466
1776408885825570240,0.036,,,,1776408885825570240,0.4645841256
1776408885833262030,0.044,,,,1776408885833262030,0.4653533046
1776408885840953820,0.058,,,,1776408885840953820,0.4661224836
1776408885848645610,0.076,,,,1776408885848645610,0.4668916626
1776408885856337400,0.085,,,,1776408885856337400,0.4676608416
1776408885864029190,0.083,,,,1776408885864029190,0.4684300206
1776408885871720980,0.063,,830.0,,1776408885871720980,0.4691991996
1776408885879412770,0.046,,,,1776408885879412770,0.4699683786
1776408885887104560,0.046,,,,1776408885887104560,0.4707375576
1776408885894796350,0.034,,,,1776408885894796350,0.4715067366
1776408885902488140,0.022,,,,1776408885902488140,0.4722759156
1776408885910179930,0.031,,,,1776408885910179930,0.4730450946
1776408885917871720,0.041,,,,1776408885917871720,0.4738142736
1776408885925563510,0.039,,,,1776408885925563510,0.4745834526
1776408885933255300,0.034,,,,1776408885933255300,0.4753526316
1776408885940947090,0.053,,,,1776408885940947090,0.4761218106
1776408885948638880,0.213,,,,1776408885948638880,0.4768909896
1776408885956330670,0.714,,,,1776408885956330670,0.4776601686
1776408885964022460,1.322,,,,1776408885964022460,0.4784293476
1776408885971714250,0.983,,,,1776408885971714250,0.4791985266
1776408885979406040,-0.625,,,,1776408885979406040,0.4799677056
1776408885987097830,-1.715,,,,1776408885987097830,0.4807368846
1776408885994789620,-1.221,,,,1776408885994789620,0.4815060636
1776408886002481410,-0.532,,,,1776408886002481410,0.4822752426
1776408886010173200,-0.326,,,,1776408886010173200,0.4830444216
1776408886017864990,-0.019,,,,1776408886017864990,0.4838136006
1776408886025556780,0.235,,,,1776408886025556780,0.4845827796
1776408886033248570,0.191,,,,1776408886033248570,0.4853519586
1776408886040940360,0.176,,,,1776408886040940360,0.4861211376
1776408886048632150,0.26,,,,1776408886048632150,0.4868903166
1776408886056323940,0.26,,,,1776408886056323940,0.4876594956
1776408886064015730,0.235,,,,1776408886064015730,0.4884286746
1776408886071707520,0.255,,,,1776408886071707520,0.4891978536
1776408886079399310,0.262,,,,1776408886079399310,0.4899670326
1776408886087091100,0.26,,,,1776408886087091100,0.4907362116
1776408886094782890,0.274,,,,1776408886094782890,0.4915053906
1776408886102474680,0.287,,,,1776408886102474680,0.4922745696
1776408886110166470,0.291,,,,1776408886110166470,0.4930437486
1776408886117858260,0.291,,,,1776408886117858260,0.4938129276
1776408886125550050,0.291,,,,1776408886125550050,0.4945821066
1776408886133241840,0.304,,,,1776408886133241840,0.4953512856
1776408886140933630,0.321,,,,1776408886140933630,0.4961204646
1776408886148625420,0.336,,,,1776408886148625420,0.4968896436
1776408886156317210,0.35,,,,1776408886156317210,0.4976588226
1776408886164009000,0.358,,,,1776408886164009000,0.4984280016
1776408886171700790,0.36,,,,1776408886171700790,0.4991971806
1776408886179392580,0.36,,,,1776408886179392580,0.4999663596
1776408886187084370,0.358,,,,1776408886187084370,0.5007355386
1776408886194776160,0.345,,,,1776408886194776160,0.5015047176
1776408886202467950,0.321,,,,1776408886202467950,0.5022738966
1776408886210159740,0.287,,,,1776408886210159740,0.5030430756
1776408886217851530,0.247,,,,1776408886217851530,0.5038122546
1776408886225543320,0.206,,,,1776408886225543320,0.5045814336
1776408886233235122,0.154,,,,1776408886233235122,0.5053506138
1776408886240926912,0.115,,,,1776408886240926912,0.5061197928
1776408886248618702,0.085,,,,1776408886248618702,0.5068889718
1776408886256310492,0.049,,,,1776408886256310492,0.5076581508
1776408886264002282,0.009,,,,1776408886264002282,0.5084273298
1776408886271694072,-0.009,,,,1776408886271694072,0.5091965088
1776408886279385862,-0.017,,,,1776408886279385862,0.5099656878
1776408886287077652,-0.024,,,,1776408886287077652,0.5107348668
1776408886294769442,-0.029,,,,1776408886294769442,0.5115040458
1776408886302461232,-0.026,,,,1776408886302461232,0.5122732248
1776408886310153022,-0.031,,,,1776408886310153022,0.5130424038
1776408886317844812,-0.034,,,,1776408886317844812,0.5138115828
1776408886325536602,-0.019,,,,1776408886325536602,0.5145807618
1776408886333228392,-0.002,,,,1776408886333228392,0.5153499408
1776408886340920182,0.004,,,,1776408886340920182,0.5161191198
1776408886348611972,0.009,,,,1776408886348611972,0.5168882988
1776408886356303762,0.014,,,,1776408886356303762,0.5176574778
1776408886363995552,0.022,,,,1776408886363995552,0.5184266568
1776408886371687342,0.029,,,,1776408886371687342,0.5191958358
1776408886379379132,0.039,,,,1776408886379379132,0.5199650148
1776408886387070922,0.044,,,,1776408886387070922,0.5207341938
1776408886394762712,0.039,,,,1776408886394762712,0.5215033728
1776408886402454502,0.036,,,,1776408886402454502,0.5222725518
1776408886410146292,0.039,,,,1776408886410146292,0.5230417308
1776408886417838082,0.034,,,,1776408886417838082,0.5238109098
1776408886425529872,0.024,,,,1776408886425529872,0.5245800888
1776408886433221662,0.026,,,,1776408886433221662,0.5253492678
1776408886440913452,0.029,,,,1776408886440913452,0.5261184468
1776408886448605242,0.024,,,,1776408886448605242,0.5268876258
1776408886456297032,0.017,,,,1776408886456297032,0.5276568048
1776408886463988822,0.017,,,,1776408886463988822,0.5284259838
1776408886471680612,0.024,,,,1776408886471680612,0.5291951628
1776408886479372402,0.026,,,,1776408886479372402,0.5299643418
1776408886487064192,0.014,,,,1776408886487064192,0.5307335208
1776408886494755982,0.012,,,,1776408886494755982,0.5315026998
1776408886502447772,0.019,,,,1776408886502447772,0.5322718788
1776408886510139562,0.019,,,,1776408886510139562,0.5330410578
1776408886517831352,0.019,,,,1776408886517831352,0.5338102368
1776408886525523142,0.026,,,,1776408886525523142,0.5345794158
1776408886533214932,0.031,,,,1776408886533214932,0.5353485948
1776408886540906722,0.029,,,,1776408886540906722,0.5361177738
1776408886548598512,0.031,,,,1776408886548598512,0.5368869528
1776408886556290302,0.039,,,,1776408886556290302,0.5376561318
1776408886563982092,0.053,,,,1776408886563982092,0.5384253108
1776408886571673882,0.068,,,,1776408886571673882,0.5391944898
1776408886579365672,0.083,,,,1776408886579365672,0.5399636688
1776408886587057462,0.083,,,,1776408886587057462,0.5407328478
1776408886594749252,0.071,,,,1776408886594749252,0.5415020268
1776408886602441042,0.053,,,,1776408886602441042,0.5422712058
1776408886610132832,0.041,,,,1776408886610132832,0.5430403848
1776408886617824622,0.031,,,,1776408886617824622,0.5438095638
1776408886625516412,0.031,,,,1776408886625516412,0.5445787428
1776408886633208202,0.036,,,,1776408886633208202,0.5453479218
1776408886640899992,0.041,,,,1776408886640899992,0.5461171008
1776408886648591782,0.044,,,,1776408886648591782,0.5468862798
1776408886656283572,0.041,,,,1776408886656283572,0.5476554588
1776408886663975362,0.058,,,,1776408886663975362,0.5484246378
1776408886671667152,0.235,,,,1776408886671667152,0.5491938168
1776408886679358942,0.78,,809.0,,1776408886679358942,0.5499629958
1776408886687050732,1.401,,,,1776408886687050732,0.5507321748
1776408886694742522,0.942,,,,1776408886694742522,0.5515013538
1776408886702434312,-0.787,,,,1776408886702434312,0.5522705328
1776408886710126102,-1.781,,,,1776408886710126102,0.5530397118
1776408886717817892,-1.182,,,,1776408886717817892,0.5538088908
1776408886725509682,-0.539,,,,1776408886725509682,0.5545780698
1776408886733201472,-0.35,,,,1776408886733201472,0.5553472488
1776408886740893262,-0.002,,,,1776408886740893262,0.5561164278
1776408886748585052,0.255,,,,1776408886748585052,0.5568856068
1776408886756276842,0.193,,,,1776408886756276842,0.5576547858
1776408886763968632,0.184,,,,1776408886763968632,0.5584239648
1776408886771660422,0.274,,,,1776408886771660422,0.5591931438
1776408886779352212,0.279,,,,1776408886779352212,0.5599623228
1776408886787044002,0.262,,,,1776408886787044002,0.5607315018
1776408886794735804,0.284,75.0,,,1776408886794735804,0.561500682
1776408886802427594,0.296,,,,1776408886802427594,0.562269861
1776408886810119384,0.296,,,,1776408886810119384,0.56303904
1776408886817811174,0.304,,,,1776408886817811174,0.563808219
1776408886825502964,0.314,,,,1776408886825502964,0.564577398
1776408886833194754,0.321,,,,1776408886833194754,0.565346577
1776408886840886544,0.328,,,,1776408886840886544,0.566115756
1776408886848578334,0.331,,,,1776408886848578334,0.566884935
1776408886856270124,0.336,,,,1776408886856270124,0.567654114
1776408886863961914,0.353,,,,1776408886863961914,0.568423293
1776408886871653704,0.37,,,,1776408886871653704,0.569192472
1776408886879345494,0.382,,,,1776408886879345494,0.569961651
1776408886887037284,0.397,,,,1776408886887037284,0.57073083
1776408886894729074,0.407,,,,1776408886894729074,0.571500009
1776408886902420864,0.404,,,,1776408886902420864,0.572269188
1776408886910112654,0.392,,,,1776408886910112654,0.573038367
1776408886917804444,0.372,,,,1776408886917804444,0.573807546
1776408886925496234,0.348,,,,1776408886925496234,0.574576725
1776408886933188024,0.318,,,,1776408886933188024,0.575345904
1776408886940879814,0.282,,,,1776408886940879814,0.576115083
1776408886948571604,0.242,,,,1776408886948571604,0.576884262
1776408886956263394,0.193,,,,1776408886956263394,0.577653441
1776408886963955184,0.142,,,,1776408886963955184,0.57842262
1776408886971646974,0.103,,,,1776408886971646974,0.579191799
1776408886979338764,0.068,,,,1776408886979338764,0.579960978
1776408886987030554,0.034,,,,1776408886987030554,0.580730157
1776408886994722344,0.012,,,,1776408886994722344,0.581499336
1776408887002414134,-0.004,,,,1776408887002414134,0.582268515
1776408887010105924,-0.007,,,,1776408887010105924,0.583037694
1776408887017797714,0.002,,,,1776408887017797714,0.583806873
1776408887025489504,0.002,,,,1776408887025489504,0.584576052
1776408887033181294,0.0,,,,1776408887033181294,0.585345231
1776408887040873084,0.007,,,,1776408887040873084,0.58611441
1776408887048564874,0.017,,,,1776408887048564874,0.586883589
1776408887056256664,0.019,,,,1776408887056256664,0.587652768
1776408887063948454,0.024,,,,1776408887063948454,0.588421947
1776408887071640244,0.044,,,,1776408887071640244,0.589191126
1776408887079332034,0.063,,,,1776408887079332034,0.589960305
1776408887087023824,0.051,,,,1776408887087023824,0.590729484
1776408887094715614,0.046,,,,1776408887094715614,0.591498663
1776408887102407404,0.071,,,,1776408887102407404,0.592267842
1776408887110099194,0.08,,,,1776408887110099194,0.593037021
1776408887117790984,0.071,,,,1776408887117790984,0.5938062
1776408887125482774,0.068,,,,1776408887125482774,0.594575379
1776408887133174564,0.068,,,,1776408887133174564,0.595344558
1776408887140866354,0.068,,,,1776408887140866354,0.596113737
1776408887148558144,0.063,,,,1776408887148558144,0.596882916
1776408887156249934,0.061,,,,1776408887156249934,0.597652095
1776408887163941724,0.056,,,,1776408887163941724,0.598421274
1776408887171633514,0.051,,,,1776408887171633514,0.599190453
1776408887179325304,0.051,,,,1776408887179325304,0.599959632
1776408887187017094,0.056,,,,1776408887187017094,0.600728811
1776408887194708884,0.053,,,,1776408887194708884,0.60149799
1776408887202400674,0.049,,,,1776408887202400674,0.602267169
1776408887210092464,0.049,,,,1776408887210092464,0.603036348
1776408887217784254,0.056,,,,1776408887217784254,0.603805527
1776408887225476044,0.056,,,,1776408887225476044,0.604574706
1776408887233167834,0.041,,,,1776408887233167834,0.605343885
1776408887240859624,0.022,,,,1776408887240859624,0.606113064
1776408887248551414,0.017,,,,1776408887248551414,0.606882243
1776408887256243204,0.031,,,,1776408887256243204,0.607651422
1776408887263934994,0.041,,,,1776408887263934994,0.608420601
1776408887271626784,0.044,,,,1776408887271626784,0.60918978
1776408887279318574,0.053,,,,1776408887279318574,0.609958959
1776408887287010364,0.051,,,,1776408887287010364,0.610728138
1776408887294702154,0.039,,,,1776408887294702154,0.611497317
1776408887302393944,0.041,,,,1776408887302393944,0.612266496
1776408887310085734,0.056,,,,1776408887310085734,0.613035675
1776408887317777524,0.08,,,,1776408887317777524,0.613804854
1776408887325469314,0.088,,,,1776408887325469314,0.614574033
1776408887333161104,0.066,,,,1776408887333161104,0.615343212
1776408887340852894,0.063,,,,1776408887340852894,0.616112391
1776408887348544684,0.061,,,,1776408887348544684,0.61688157
1776408887356236486,0.039,,,,1776408887356236486,0.6176507502
1776408887363928276,0.029,,,,1776408887363928276,0.6184199292
1776408887371620066,0.029,,,,1776408887371620066,0.6191891082
1776408887379311856,0.034,,,,1776408887379311856,0.6199582872
1776408887387003646,0.039,,,,1776408887387003646,0.6207274662
1776408887394695436,0.029,,,,1776408887394695436,0.6214966452
1776408887402387226,0.012,,,,1776408887402387226,0.6222658242
1776408887410079016,0.103,,,,1776408887410079016,0.6230350032
1776408887417770806,0.488,,,,1776408887417770806,0.6238041822
1776408887425462596,1.167,,,,1776408887425462596,0.6245733612
1776408887433154386,1.369,,754.0,,1776408887433154386,0.6253425402
1776408887440846176,0.139,,,,1776408887440846176,0.6261117192
1776408887448537966,-1.535,,,,1776408887448537966,0.6268808982
1776408887456229756,-1.685,,,,1776408887456229756,0.6276500772
1776408887463921546,-0.787,,,,1776408887463921546,0.6284192562
1776408887471613336,-0.353,,,,1776408887471613336,0.6291884352
1776408887479305126,-0.134,,,,1776408887479305126,0.6299576142
1776408887486996916,0.201,,,,1776408887486996916,0.6307267932
1776408887494688706,0.235,,,,1776408887494688706,0.6314959722
1776408887502380496,0.149,,,,1776408887502380496,0.6322651512
1776408887510072286,0.223,,,,1776408887510072286,0.6330343302
1776408887517764076,0.274,,,,1776408887517764076,0.6338035092
1776408887525455866,0.242,,,,1776408887525455866,0.6345726882
1776408887533147656,0.25,,,,1776408887533147656,0.6353418672
1776408887540839446,0.269,,,,1776408887540839446,0.6361110462
1776408887548531236,0.267,,,,1776408887548531236,0.6368802252
1776408887556223026,0.279,,,,1776408887556223026,0.6376494042
1776408887563914816,0.296,,,,1776408887563914816,0.6384185832
1776408887571606606,0.294,,,,1776408887571606606,0.6391877622
1776408887579298396,0.301,,,,1776408887579298396,0.6399569412
1776408887586990186,0.321,,,,1776408887586990186,0.6407261202
1776408887594681976,0.338,,,,1776408887594681976,0.6414952992
1776408887602373766,0.35,,,,1776408887602373766,0.6422644782
1776408887610065556,0.363,,,,1776408887610065556,0.6430336572
1776408887617757346,0.372,,,,1776408887617757346,0.6438028362
1776408887625449136,0.382,,,,1776408887625449136,0.6445720152
1776408887633140926,0.39,,,,1776408887633140926,0.6453411942
1776408887640832716,0.397,,,,1776408887640832716,0.6461103732
1776408887648524506,0.392,,,,1776408887648524506,0.6468795522
1776408887656216296,0.375,,,,1776408887656216296,0.6476487312
1776408887663908086,0.355,,,,1776408887663908086,0.6484179102
1776408887671599876,0.331,,,,1776408887671599876,0.6491870892
1776408887679291666,0.294,,,,1776408887679291666,0.6499562682
1776408887686983456,0.247,,,,1776408887686983456,0.6507254472
1776408887694675246,0.213,,,,1776408887694675246,0.6514946262
1776408887702367036,0.186,,,,1776408887702367036,0.6522638052
1776408887710058826,0.142,,,,1776408887710058826,0.6530329842
1776408887717750616,0.09,,,,1776408887717750616,0.6538021632
1776408887725442406,0.063,,,,1776408887725442406,0.6545713422
1776408887733134196,0.041,,,,1776408887733134196,0.6553405212
1776408887740825986,0.0,,,,1776408887740825986,0.6561097002
1776408887748517776,-0.029,,,,1776408887748517776,0.6568788792
1776408887756209566,-0.019,,,,1776408887756209566,0.6576480582
1776408887763901356,-0.009,,,,1776408887763901356,0.6584172372
1776408887771593146,-0.019,,,,1776408887771593146,0.6591864162
1776408887779284936,-0.019,,,,1776408887779284936,0.6599555952
1776408887786976726,0.004,,,,1776408887786976726,0.6607247742
1776408887794668516,0.014,,,,1776408887794668516,0.6614939532
1776408887802360306,0.012,,,,1776408887802360306,0.6622631322
1776408887810052096,0.026,,,,1776408887810052096,0.6630323112
1776408887817743886,0.036,,,,1776408887817743886,0.6638014902
1776408887825435676,0.034,,,,1776408887825435676,0.6645706692
1776408887833127466,0.039,,,,1776408887833127466,0.6653398482
1776408887840819256,0.049,,,,1776408887840819256,0.6661090272
1776408887848511046,0.056,,,,1776408887848511046,0.6668782062
1776408887856202836,0.058,,,,1776408887856202836,0.6676473852
1776408887863894626,0.058,,,,1776408887863894626,0.6684165642
1776408887871586416,0.058,,,,1776408887871586416,0.6691857432
1776408887879278206,0.056,,,,1776408887879278206,0.6699549222
1776408887886969996,0.056,,,,1776408887886969996,0.6707241012
1776408887894661786,0.051,,,,1776408887894661786,0.6714932802
1776408887902353576,0.046,,,,1776408887902353576,0.6722624592
1776408887910045366,0.051,,,,1776408887910045366,0.6730316382
1776408887917737168,0.046,76.0,,,1776408887917737168,0.6738008184
1776408887925428749,0.036,,,,1776408887925428749,0.6745699765
1776408887933120330,0.039,,,,1776408887933120330,0.6753391346
1776408887940811911,0.039,,,,1776408887940811911,0.6761082927
1776408887948503492,0.041,,,,1776408887948503492,0.6768774508
1776408887956195073,0.044,,,,1776408887956195073,0.6776466089
1776408887963886654,0.034,,,,1776408887963886654,0.678415767
1776408887971578235,0.031,,,,1776408887971578235,0.6791849251
1776408887979269816,0.044,,,,1776408887979269816,0.6799540832
1776408887986961397,0.051,,,,1776408887986961397,0.6807232413
1776408887994652978,0.044,,,,1776408887994652978,0.6814923994
1776408888002344559,0.051,,,,1776408888002344559,0.6822615575
1776408888010036140,0.056,,,,1776408888010036140,0.6830307156
1776408888017727721,0.036,,,,1776408888017727721,0.6837998737
1776408888025419302,0.031,,,,1776408888025419302,0.6845690318
1776408888033110883,0.036,,,,1776408888033110883,0.6853381899
1776408888040802464,0.031,,,,1776408888040802464,0.686107348
1776408888048494045,0.031,,,,1776408888048494045,0.6868765061
1776408888056185626,0.031,,,,1776408888056185626,0.6876456642
1776408888063877207,0.024,,,,1776408888063877207,0.6884148223
1776408888071568788,0.036,,,,1776408888071568788,0.6891839804
1776408888079260369,0.051,,,,1776408888079260369,0.6899531385
1776408888086951950,0.051,,,,1776408888086951950,0.6907222966
1776408888094643531,0.056,,,,1776408888094643531,0.6914914547
1776408888102335112,0.071,,,,1776408888102335112,0.6922606128
1776408888110026693,0.076,,,,1776408888110026693,0.6930297709
1776408888117718274,0.078,,,,1776408888117718274,0.693798929
1776408888125409855,0.085,,,,1776408888125409855,0.6945680871
1776408888133101436,0.083,,,,1776408888133101436,0.6953372452
1776408888140793017,0.066,,,,1776408888140793017,0.6961064033
1776408888148484598,0.046,,,,1776408888148484598,0.6968755614
1776408888156176179,0.026,,,,1776408888156176179,0.6976447195
1776408888163867760,0.022,,,,1776408888163867760,0.6984138776
1776408888171559341,0.024,,,,1776408888171559341,0.6991830357
1776408888179250922,0.026,,,,1776408888179250922,0.6999521938
1776408888186942503,0.041,,,,1776408888186942503,0.7007213519
1776408888194634084,0.058,,,,1776408888194634084,0.70149051
1776408888202325665,0.058,,,,1776408888202325665,0.7022596681
1776408888210017246,0.11,,775.0,,1776408888210017246,0.7030288262
1776408888217708827,0.446,,,,1776408888217708827,0.7037979843
1776408888225400408,1.113,,,,1776408888225400408,0.7045671424
1776408888233091989,1.324,,,,1776408888233091989,0.7053363005
1776408888240783570,0.137,,,,1776408888240783570,0.7061054586
1776408888248475151,-1.462,,,,1776408888248475151,0.7068746167
1776408888256166732,-1.599,,,,1776408888256166732,0.7076437748
1776408888263858313,-0.753,,,,1776408888263858313,0.7084129329
1776408888271549894,-0.338,,,,1776408888271549894,0.709182091
1776408888279241475,-0.127,,,,1776408888279241475,0.7099512491
1776408888286933056,0.186,,,,1776408888286933056,0.7107204072
1776408888294624637,0.233,,,,1776408888294624637,0.7114895653
1776408888302316218,0.161,,,,1776408888302316218,0.7122587234
1776408888310007799,0.228,,,,1776408888310007799,0.7130278815
1776408888317699380,0.267,,,,1776408888317699380,0.7137970396
1776408888325390961,0.245,,,,1776408888325390961,0.7145661977
1776408888333082542,0.255,,,,1776408888333082542,0.7153353558
1776408888340774123,0.274,,,,1776408888340774123,0.7161045139
1776408888348465704,0.267,,,,1776408888348465704,0.716873672
1776408888356157285,0.267,,,,1776408888356157285,0.7176428301
1776408888363848866,0.287,,,,1776408888363848866,0.7184119882
1776408888371540447,0.306,,,,1776408888371540447,0.7191811463
1776408888379232028,0.309,,,,1776408888379232028,0.7199503044
1776408888386923609,0.306,,,,1776408888386923609,0.7207194625
1776408888394615190,0.318,,,,1776408888394615190,0.7214886206
1776408888402306771,0.336,,,,1776408888402306771,0.7222577787
1776408888409998352,0.343,,,,1776408888409998352,0.7230269368
1776408888417689933,0.353,,,,1776408888417689933,0.7237960949
1776408888425381514,0.368,,,,1776408888425381514,0.724565253
1776408888433073095,0.375,,,,1776408888433073095,0.7253344111
1776408888440764676,0.375,,,,1776408888440764676,0.7261035692
1776408888448456257,0.375,,,,1776408888448456257,0.7268727273
1776408888456147838,0.363,,,,1776408888456147838,0.7276418854
1776408888463839419,0.341,,,,1776408888463839419,0.7284110435
1776408888471531000,0.314,,,,1776408888471531000,0.7291802016
1776408888479222590,0.277,76.0,,,1776408888479222590,0.7299493606
1776408888486914449,0.247,,,,1776408888486914449,0.7307185465
1776408888494606308,0.22,,,,1776408888494606308,0.7314877324
1776408888502298167,0.176,,,,1776408888502298167,0.7322569183
1776408888509990026,0.13,,,,1776408888509990026,0.7330261042
1776408888517681885,0.1,,,,1776408888517681885,0.7337952901
1776408888525373744,0.066,,,,1776408888525373744,0.734564476
1776408888533065603,0.036,,,,1776408888533065603,0.7353336619
1776408888540757462,0.024,,,,1776408888540757462,0.7361028478
1776408888548449321,0.012,,,,1776408888548449321,0.7368720337
1776408888556141180,-0.007,,,,1776408888556141180,0.7376412196
1776408888563833039,-0.009,,,,1776408888563833039,0.7384104055
1776408888571524898,0.004,,,,1776408888571524898,0.7391795914
1776408888579216757,0.014,,,,1776408888579216757,0.7399487773
1776408888586908616,0.017,,,,1776408888586908616,0.7407179632
1776408888594600475,0.024,,,,1776408888594600475,0.7414871491
1776408888602292334,0.026,,,,1776408888602292334,0.742256335
1776408888609984193,0.029,,,,1776408888609984193,0.7430255209
1776408888617676052,0.036,,,,1776408888617676052,0.7437947068
1776408888625367911,0.044,,,,1776408888625367911,0.7445638927
1776408888633059770,0.039,,,,1776408888633059770,0.7453330786
1776408888640751629,0.034,,,,1776408888640751629,0.7461022645
1776408888648443488,0.053,,,,1776408888648443488,0.7468714504
1776408888656135347,0.066,,,,1776408888656135347,0.7476406363
1776408888663827206,0.056,,,,1776408888663827206,0.7484098222
1776408888671519065,0.053,,,,1776408888671519065,0.7491790081
1776408888679210924,0.056,,,,1776408888679210924,0.749948194
1776408888686902783,0.051,,,,1776408888686902783,0.7507173799
1776408888694594642,0.049,,,,1776408888694594642,0.7514865658
1776408888702286501,0.051,,,,1776408888702286501,0.7522557517
1776408888709978360,0.051,,,,1776408888709978360,0.7530249376
1776408888717670219,0.049,,,,1776408888717670219,0.7537941235
1776408888725362078,0.046,,,,1776408888725362078,0.7545633094
1776408888733053937,0.041,,,,1776408888733053937,0.7553324953
1776408888740745796,0.036,,,,1776408888740745796,0.7561016812
1776408888748437655,0.034,,,,1776408888748437655,0.7568708671
1776408888756129514,0.022,,,,1776408888756129514,0.757640053
1776408888763821373,0.009,,,,1776408888763821373,0.7584092389
1776408888771513232,0.012,,,,1776408888771513232,0.7591784248
1776408888779205091,0.024,,,,1776408888779205091,0.7599476107
1776408888786896950,0.029,,,,1776408888786896950,0.7607167966
1776408888794588809,0.024,,,,1776408888794588809,0.7614859825
1776408888802280668,0.022,,,,1776408888802280668,0.7622551684
1776408888809972527,0.024,,,,1776408888809972527,0.7630243543
1776408888817664386,0.022,,,,1776408888817664386,0.7637935402
1776408888825356245,0.019,,,,1776408888825356245,0.7645627261
1776408888833048104,0.024,,,,1776408888833048104,0.765331912
1776408888840739963,0.022,,,,1776408888840739963,0.7661010979
1776408888848431822,0.014,,,,1776408888848431822,0.7668702838
1776408888856123681,0.017,,,,1776408888856123681,0.7676394697
1776408888863815540,0.022,,,,1776408888863815540,0.7684086556
1776408888871507399,0.026,,,,1776408888871507399,0.7691778415
1776408888879199258,0.029,,,,1776408888879199258,0.7699470274
1776408888886891117,0.026,,,,1776408888886891117,0.7707162133
1776408888894582976,0.024,,,,1776408888894582976,0.7714853992
1776408888902274835,0.031,,,,1776408888902274835,0.7722545851
1776408888909966694,0.044,,,,1776408888909966694,0.773023771
1776408888917658553,0.051,,,,1776408888917658553,0.7737929569
1776408888925350412,0.066,,,,1776408888925350412,0.7745621428
1776408888933042271,0.078,,,,1776408888933042271,0.7753313287
1776408888940734130,0.071,,,,1776408888940734130,0.7761005146
1776408888948425989,0.068,,,,1776408888948425989,0.7768697005
1776408888956117848,0.068,,,,1776408888956117848,0.7776388864
1776408888963809707,0.053,,,,1776408888963809707,0.7784080723
1776408888971501566,0.036,,768.0,,1776408888971501566,0.7791772582
1776408888979193425,0.034,,,,1776408888979193425,0.7799464441
1776408888986885284,0.039,,,,1776408888986885284,0.78071563
1776408888994577143,0.034,,,,1776408888994577143,0.7814848159
1776408889002269002,0.036,,,,1776408889002269002,0.7822540018
1776408889009960861,0.044,,,,1776408889009960861,0.7830231877
1776408889017652720,0.051,,,,1776408889017652720,0.7837923736
1776408889025344579,0.147,,,,1776408889025344579,0.7845615595
1776408889033036438,0.539,,,,1776408889033036438,0.7853307454
1776408889040728358,1.19,,,,1776408889040728358,0.7860999374
1776408889048419869,1.192,,,,1776408889048419869,0.7868690885
1776408889056111380,-0.188,,,,1776408889056111380,0.7876382396
1776408889063802891,-1.567,,,,1776408889063802891,0.7884073907
1776408889071494402,-1.408,,,,1776408889071494402,0.7891765418
1776408889079185913,-0.652,,,,1776408889079185913,0.7899456929
1776408889086877424,-0.368,,,,1776408889086877424,0.790714844
1776408889094568935,-0.103,,,,1776408889094568935,0.7914839951
1776408889102260446,0.213,,,,1776408889102260446,0.7922531462
1776408889109951957,0.22,,,,1776408889109951957,0.7930222973
1776408889117643468,0.166,,,,1776408889117643468,0.7937914484
1776408889125334979,0.238,,,,1776408889125334979,0.7945605995
1776408889133026490,0.262,,,,1776408889133026490,0.7953297506
1776408889140718001,0.245,,,,1776408889140718001,0.7960989017
1776408889148409512,0.264,,,,1776408889148409512,0.7968680528
1776408889156101023,0.277,,,,1776408889156101023,0.7976372039
1776408889163792534,0.272,,,,1776408889163792534,0.798406355
1776408889171484045,0.279,,,,1776408889171484045,0.7991755061
1776408889179175556,0.289,,,,1776408889179175556,0.7999446572
1776408889186867067,0.291,,,,1776408889186867067,0.8007138083
1776408889194558578,0.304,,,,1776408889194558578,0.8014829594
1776408889202250089,0.318,,,,1776408889202250089,0.8022521105
1776408889209941600,0.328,,,,1776408889209941600,0.8030212616
1776408889217633111,0.336,,,,1776408889217633111,0.8037904127
1776408889225324622,0.348,,,,1776408889225324622,0.8045595638
1776408889233016133,0.355,,,,1776408889233016133,0.8053287149
1776408889240707644,0.365,,,,1776408889240707644,0.806097866
1776408889248399155,0.382,,,,1776408889248399155,0.8068670171
1776408889256090666,0.387,,,,1776408889256090666,0.8076361682
1776408889263782177,0.37,,,,1776408889263782177,0.8084053193
1776408889271473688,0.341,,,,1776408889271473688,0.8091744704
1776408889279165199,0.321,,,,1776408889279165199,0.8099436215
1776408889286856710,0.294,,,,1776408889286856710,0.8107127726
1776408889294548221,0.257,,,,1776408889294548221,0.8114819237
1776408889302239732,0.22,,,,1776408889302239732,0.8122510748
1776408889309931243,0.179,,,,1776408889309931243,0.8130202259
1776408889317622754,0.142,,,,1776408889317622754,0.813789377
1776408889325314265,0.11,,,,1776408889325314265,0.8145585281
1776408889333005776,0.076,,,,1776408889333005776,0.8153276792
1776408889340697287,0.041,,,,1776408889340697287,0.8160968303
1776408889348388798,0.022,,,,1776408889348388798,0.8168659814
1776408889356080309,0.012,,,,1776408889356080309,0.8176351325
1776408889363771820,0.004,,,,1776408889363771820,0.8184042836
1776408889371463331,-0.002,,,,1776408889371463331,0.8191734347
1776408889379154842,-0.009,,,,1776408889379154842,0.8199425858
1776408889386846353,0.0,,,,1776408889386846353,0.8207117369
1776408889394537864,0.009,,,,1776408889394537864,0.821480888
1776408889402229375,0.012,,,,1776408889402229375,0.8222500391
1776408889409920886,0.019,,,,1776408889409920886,0.8230191902
1776408889417612397,0.029,,,,1776408889417612397,0.8237883413
1776408889425303908,0.034,,,,1776408889425303908,0.8245574924
1776408889432995419,0.039,,,,1776408889432995419,0.8253266435
1776408889440686930,0.046,,,,1776408889440686930,0.8260957946
1776408889448378441,0.051,,,,1776408889448378441,0.8268649457
1776408889456069952,0.056,,,,1776408889456069952,0.8276340968
1776408889463761463,0.061,,,,1776408889463761463,0.8284032479
1776408889471452974,0.063,,,,1776408889471452974,0.829172399
1776408889479144485,0.061,,,,1776408889479144485,0.8299415501
1776408889486835996,0.058,,,,1776408889486835996,0.8307107012
1776408889494527507,0.058,,,,1776408889494527507,0.8314798523
1776408889502219018,0.051,,,,1776408889502219018,0.8322490034
1776408889509910529,0.049,,,,1776408889509910529,0.8330181545
1776408889517602040,0.051,,,,1776408889517602040,0.8337873056
1776408889525293551,0.049,,,,1776408889525293551,0.8345564567
1776408889532985062,0.041,,,,1776408889532985062,0.8353256078
1776408889540676573,0.041,,,,1776408889540676573,0.8360947589
1776408889548368084,0.044,,,,1776408889548368084,0.83686391
1776408889556059595,0.046,,,,1776408889556059595,0.8376330611
1776408889563751106,0.049,,,,1776408889563751106,0.8384022122
1776408889571442617,0.049,,,,1776408889571442617,0.8391713633
1776408889579134128,0.041,,,,1776408889579134128,0.8399405144
1776408889586825639,0.039,,,,1776408889586825639,0.8407096655
1776408889594517150,0.044,,,,1776408889594517150,0.8414788166
1776408889602208696,0.039,76.0,,,1776408889602208696,0.8422479712
1776408889609900486,0.031,,,,1776408889609900486,0.8430171502
1776408889617592276,0.034,,,,1776408889617592276,0.8437863292
1776408889625284066,0.031,,,,1776408889625284066,0.8445555082
1776408889632975856,0.029,,,,1776408889632975856,0.8453246872
1776408889640667646,0.036,,,,1776408889640667646,0.8460938662
1776408889648359436,0.046,,,,1776408889648359436,0.8468630452
1776408889656051226,0.053,,,,1776408889656051226,0.8476322242
1776408889663743016,0.053,,,,1776408889663743016,0.8484014032
1776408889671434806,0.056,,,,1776408889671434806,0.8491705822
1776408889679126596,0.066,,,,1776408889679126596,0.8499397612
1776408889686818386,0.076,,,,1776408889686818386,0.8507089402
1776408889694510176,0.078,,723.0,,1776408889694510176,0.8514781192
1776408889702201966,0.078,,,,1776408889702201966,0.8522472982
1776408889709893756,0.071,,,,1776408889709893756,0.8530164772
1776408889717585546,0.051,,,,1776408889717585546,0.8537856562
1776408889725277336,0.034,,,,1776408889725277336,0.8545548352
1776408889732969126,0.029,,,,1776408889732969126,0.8553240142
1776408889740660916,0.036,,,,1776408889740660916,0.8560931932
1776408889748352706,0.046,,,,1776408889748352706,0.8568623722
1776408889756044496,0.053,,,,1776408889756044496,0.8576315512
1776408889763736286,0.049,,,,1776408889763736286,0.8584007302
1776408889771428076,0.034,,,,1776408889771428076,0.8591699092
1776408889779119866,0.1,,,,1776408889779119866,0.8599390882
1776408889786811656,0.446,,,,1776408889786811656,0.8607082672
1776408889794503446,1.123,,,,1776408889794503446,0.8614774462
1776408889802195236,1.354,,,,1776408889802195236,0.8622466252
1776408889809887026,0.154,,,,1776408889809887026,0.8630158042
1776408889817578816,-1.479,,,,1776408889817578816,0.8637849832
1776408889825270606,-1.607,,,,1776408889825270606,0.8645541622
1776408889832962396,-0.76,,,,1776408889832962396,0.8653233412
1776408889840654186,-0.368,,,,1776408889840654186,0.8660925202
1776408889848345976,-0.137,,,,1776408889848345976,0.8668616992
1776408889856037766,0.206,,,,1776408889856037766,0.8676308782
1776408889863729556,0.247,,,,1776408889863729556,0.8684000572
1776408889871421346,0.169,,,,1776408889871421346,0.8691692362
1776408889879113136,0.242,,,,1776408889879113136,0.8699384152
1776408889886804926,0.287,,,,1776408889886804926,0.8707075942
1776408889894496716,0.255,,,,1776408889894496716,0.8714767732
1776408889902188506,0.267,,,,1776408889902188506,0.8722459522
1776408889909880296,0.291,,,,1776408889909880296,0.8730151312
1776408889917572086,0.284,,,,1776408889917572086,0.8737843102
1776408889925263876,0.289,,,,1776408889925263876,0.8745534892
1776408889932955666,0.306,,,,1776408889932955666,0.8753226682
1776408889940647456,0.314,,,,1776408889940647456,0.8760918472
1776408889948339246,0.321,,,,1776408889948339246,0.8768610262
1776408889956031036,0.331,,,,1776408889956031036,0.8776302052
1776408889963722826,0.341,,,,1776408889963722826,0.8783993842
1776408889971414616,0.355,,,,1776408889971414616,0.8791685632
1776408889979106406,0.368,,,,1776408889979106406,0.8799377422
1776408889986798196,0.38,,,,1776408889986798196,0.8807069212
1776408889994489986,0.392,,,,1776408889994489986,0.8814761002
1776408890002181776,0.402,,,,1776408890002181776,0.8822452792
1776408890009873566,0.404,,,,1776408890009873566,0.8830144582
1776408890017565356,0.402,,,,1776408890017565356,0.8837836372
1776408890025257146,0.39,,,,1776408890025257146,0.8845528162
1776408890032948936,0.37,,,,1776408890032948936,0.8853219952
1776408890040640726,0.338,,,,1776408890040640726,0.8860911742
1776408890048332516,0.299,,,,1776408890048332516,0.8868603532
1776408890056024306,0.26,,,,1776408890056024306,0.8876295322
1776408890063716096,0.215,,,,1776408890063716096,0.8883987112
1776408890071407886,0.169,,,,1776408890071407886,0.8891678902
1776408890079099676,0.132,,,,1776408890079099676,0.8899370692
1776408890086791466,0.095,,,,1776408890086791466,0.8907062482
1776408890094483256,0.061,,,,1776408890094483256,0.8914754272
1776408890102175046,0.036,,,,1776408890102175046,0.8922446062
1776408890109866836,0.017,,,,1776408890109866836,0.8930137852
1776408890117558626,0.004,,,,1776408890117558626,0.8937829642
1776408890125250416,0.004,,,,1776408890125250416,0.8945521432
1776408890132942206,0.009,,,,1776408890132942206,0.8953213222
1776408890140633996,0.009,,,,1776408890140633996,0.8960905012
1776408890148325786,0.009,,,,1776408890148325786,0.8968596802
1776408890156017576,0.017,,,,1776408890156017576,0.8976288592
1776408890163709378,0.026,,,,1776408890163709378,0.8983980394
1776408890171401168,0.034,,,,1776408890171401168,0.8991672184
1776408890179092958,0.039,,,,1776408890179092958,0.8999363974
1776408890186784748,0.044,,,,1776408890186784748,0.9007055764
1776408890194476538,0.053,,,,1776408890194476538,0.9014747554
1776408890202168328,0.063,,,,1776408890202168328,0.9022439344
1776408890209860118,0.068,,,,1776408890209860118,0.9030131134
1776408890217551908,0.068,,,,1776408890217551908,0.9037822924
1776408890225243698,0.066,,,,1776408890225243698,0.9045514714
1776408890232935488,0.058,,,,1776408890232935488,0.9053206504
1776408890240627278,0.061,,,,1776408890240627278,0.9060898294
1776408890248319068,0.061,,,,1776408890248319068,0.9068590084
1776408890256010858,0.053,,,,1776408890256010858,0.9076281874
1776408890263702648,0.041,,,,1776408890263702648,0.9083973664
1776408890271394438,0.031,,,,1776408890271394438,0.9091665454
1776408890279086228,0.022,,,,1776408890279086228,0.9099357244
1776408890286778018,0.017,,,,1776408890286778018,0.9107049034
1776408890294469808,0.019,,,,1776408890294469808,0.9114740824
1776408890302161598,0.019,,,,1776408890302161598,0.9122432614
1776408890309853388,0.004,,,,1776408890309853388,0.9130124404
1776408890317545178,-0.002,,,,1776408890317545178,0.9137816194
1776408890325236968,0.0,,,,1776408890325236968,0.9145507984
1776408890332928758,0.0,,,,1776408890332928758,0.9153199774
1776408890340620548,0.002,,,,1776408890340620548,0.9160891564
1776408890348312338,0.009,,,,1776408890348312338,0.9168583354
1776408890356004128,0.007,,,,1776408890356004128,0.9176275144
1776408890363695918,0.002,,,,1776408890363695918,0.9183966934
1776408890371387708,0.007,,,,1776408890371387708,0.9191658724
1776408890379079498,0.014,,,,1776408890379079498,0.9199350514
1776408890386771288,0.017,,,,1776408890386771288,0.9207042304
1776408890394463078,0.022,,,,1776408890394463078,0.9214734094
1776408890402154868,0.024,,,,1776408890402154868,0.9222425884
1776408890409846658,0.024,,,,1776408890409846658,0.9230117674
1776408890417538448,0.026,,,,1776408890417538448,0.9237809464
1776408890425230238,0.029,,,,1776408890425230238,0.9245501254
1776408890432922028,0.036,,,,1776408890432922028,0.9253193044
1776408890440613818,0.044,,742.0,,1776408890440613818,0.9260884834
1776408890448305608,0.053,,,,1776408890448305608,0.9268576624
1776408890455997398,0.053,,,,1776408890455997398,0.9276268414
1776408890463689188,0.053,,,,1776408890463689188,0.9283960204
1776408890471380978,0.061,,,,1776408890471380978,0.9291651994
1776408890479072768,0.076,,,,1776408890479072768,0.9299343784
1776408890486764558,0.093,,,,1776408890486764558,0.9307035574
1776408890494456348,0.107,,,,1776408890494456348,0.9314727364
1776408890502148138,0.11,,,,1776408890502148138,0.9322419154
1776408890509839928,0.103,,,,1776408890509839928,0.9330110944
1776408890517531718,0.09,,,,1776408890517531718,0.9337802734
1776408890525223508,0.085,,,,1776408890525223508,0.9345494524
1776408890532915298,0.076,,,,1776408890532915298,0.9353186314
1776408890540607088,0.063,,,,1776408890540607088,0.9360878104
1776408890548298878,0.068,,,,1776408890548298878,0.9368569894
1776408890555990668,0.071,,,,1776408890555990668,0.9376261684
1776408890563682458,0.061,,,,1776408890563682458,0.9383953474
1776408890571374248,0.066,,,,1776408890571374248,0.9391645264
1776408890579066038,0.073,,,,1776408890579066038,0.9399337054
1776408890586757828,0.093,,,,1776408890586757828,0.9407028844
1776408890594449618,0.279,,,,1776408890594449618,0.9414720634
1776408890602141408,0.8310000000000001,,,,1776408890602141408,0.9422412424
1776408890609833198,1.386,,,,1776408890609833198,0.9430104214
1776408890617524988,0.863,,,,1776408890617524988,0.9437796004
1776408890625216778,-0.797,,,,1776408890625216778,0.9445487794
1776408890632908568,-1.712,,,,1776408890632908568,0.9453179584
1776408890640600358,-1.099,,,,1776408890640600358,0.9460871374
1776408890648292148,-0.429,,,,1776408890648292148,0.9468563164
1776408890655983938,-0.22,,,,1776408890655983938,0.9476254954
1776408890663675728,0.095,,,,1776408890663675728,0.9483946744
1776408890671367518,0.287,,,,1776408890671367518,0.9491638534
1776408890679059308,0.206,,,,1776408890679059308,0.9499330324
1776408890686751098,0.215,,,,1776408890686751098,0.9507022114
1776408890694442888,0.296,,,,1776408890694442888,0.9514713904
1776408890702134678,0.279,,,,1776408890702134678,0.9522405694
1776408890709826468,0.267,,,,1776408890709826468,0.9530097484
1776408890717518258,0.299,,,,1776408890717518258,0.9537789274
1776408890725210060,0.304,77.0,,,1776408890725210060,0.9545481076
1776408890732901989,0.299,,,,1776408890732901989,0.9553173005
1776408890740593918,0.311,,,,1776408890740593918,0.9560864934
1776408890748285847,0.318,,,,1776408890748285847,0.9568556863
1776408890755977776,0.321,,,,1776408890755977776,0.9576248792
1776408890763669705,0.333,,,,1776408890763669705,0.9583940721
1776408890771361634,0.348,,,,1776408890771361634,0.959163265
1776408890779053563,0.35,,,,1776408890779053563,0.9599324579
1776408890786745492,0.343,,,,1776408890786745492,0.9607016508
1776408890794437421,0.338,,,,1776408890794437421,0.9614708437
1776408890802129350,0.345,,,,1776408890802129350,0.9622400366
1776408890809821279,0.363,,,,1776408890809821279,0.9630092295
1776408890817513208,0.37,,,,1776408890817513208,0.9637784224
1776408890825205137,0.37,,,,1776408890825205137,0.9645476153
1776408890832897066,0.363,,,,1776408890832897066,0.9653168082
1776408890840588995,0.345,,,,1776408890840588995,0.9660860011
1776408890848280924,0.318,,,,1776408890848280924,0.966855194
1776408890855972853,0.284,,,,1776408890855972853,0.9676243869
1776408890863664782,0.25,,,,1776408890863664782,0.9683935798
1776408890871356711,0.218,,,,1776408890871356711,0.9691627727
1776408890879048640,0.176,,,,1776408890879048640,0.9699319656
1776408890886740569,0.134,,,,1776408890886740569,0.9707011585
1776408890894432498,0.095,,,,1776408890894432498,0.9714703514
1776408890902124427,0.061,,,,1776408890902124427,0.9722395443
1776408890909816356,0.039,,,,1776408890909816356,0.9730087372
1776408890917508285,0.022,,,,1776408890917508285,0.9737779301
1776408890925200214,0.007,,,,1776408890925200214,0.974547123
1776408890932892143,0.0,,,,1776408890932892143,0.9753163159
1776408890940584072,-0.002,,,,1776408890940584072,0.9760855088
1776408890948276001,-0.002,,,,1776408890948276001,0.9768547017
1776408890955967930,0.004,,,,1776408890955967930,0.9776238946
1776408890963659859,0.007,,,,1776408890963659859,0.9783930875
1776408890971351788,0.009,,,,1776408890971351788,0.9791622804
1776408890979043717,0.017,,,,1776408890979043717,0.9799314733
1776408890986735646,0.029,,,,1776408890986735646,0.9807006662
1776408890994427575,0.034,,,,1776408890994427575,0.9814698591
1776408891002119504,0.039,,,,1776408891002119504,0.982239052
1776408891009811433,0.044,,,,1776408891009811433,0.9830082449
1776408891017503362,0.051,,,,1776408891017503362,0.9837774378
1776408891025195291,0.056,,,,1776408891025195291,0.9845466307
1776408891032887220,0.058,,,,1776408891032887220,0.9853158236
1776408891040579149,0.056,,,,1776408891040579149,0.9860850165
1776408891048271078,0.053,,,,1776408891048271078,0.9868542094
1776408891055963007,0.051,,,,1776408891055963007,0.9876234023
1776408891063654936,0.044,,,,1776408891063654936,0.9883925952
1776408891071346865,0.036,,,,1776408891071346865,0.9891617881
1776408891079038794,0.034,,,,1776408891079038794,0.989930981
1776408891086730723,0.034,,,,1776408891086730723,0.9907001739
1776408891094422652,0.029,,,,1776408891094422652,0.9914693668
1776408891102114581,0.022,,,,1776408891102114581,0.9922385597
1776408891109806510,0.019,,,,1776408891109806510,0.9930077526
1776408891117498439,0.022,,,,1776408891117498439,0.9937769455
1776408891125190368,0.022,,,,1776408891125190368,0.9945461384
1776408891132882297,0.022,,,,1776408891132882297,0.9953153313
1776408891140574226,0.022,,,,1776408891140574226,0.9960845242
1776408891148266155,0.022,,,,1776408891148266155,0.9968537171
1776408891155958084,0.024,,,,1776408891155958084,0.99762291
1776408891163650013,0.026,,,,1776408891163650013,0.9983921029
1776408891171341942,0.034,,,,1776408891171341942,0.9991612958
1776408891179033871,0.039,,,,1776408891179033871,0.9999304887
1776408891186725800,0.039,,,,1776408891186725800,1.0006996816
1776408891194417729,0.039,,,,1776408891194417729,1.0014688745
1776408891202109658,0.041,,,,1776408891202109658,1.0022380674
1776408891209801587,0.046,,,,1776408891209801587,1.0030072603
1776408891217493516,0.046,,,,1776408891217493516,1.0037764532
1776408891225185445,0.046,,,,1776408891225185445,1.0045456461
1776408891232877374,0.051,,,,1776408891232877374,1.005314839
1776408891240569303,0.053,,800.0,,1776408891240569303,1.0060840319
1776408891248261232,0.053,,,,1776408891248261232,1.0068532248
1776408891255953161,0.061,,,,1776408891255953161,1.0076224177
1776408891263645090,0.073,,,,1776408891263645090,1.0083916106
1776408891271337019,0.078,,,,1776408891271337019,1.0091608035
1776408891279028948,0.08,,,,1776408891279028948,1.0099299964
1776408891286720914,0.078,,,,1776408891286720914,1.010699193
1776408891294412773,0.068,,,,1776408891294412773,1.0114683789
1776408891302104632,0.073,,,,1776408891302104632,1.0122375648
1776408891309796491,0.09,,,,1776408891309796491,1.0130067507
1776408891317488350,0.103,,,,1776408891317488350,1.0137759366
1776408891325180209,0.11,,,,1776408891325180209,1.0145451225
1776408891332872068,0.107,,,,1776408891332872068,1.0153143084
1776408891340563927,0.09,,,,1776408891340563927,1.0160834943
1776408891348255786,0.08,,,,1776408891348255786,1.0168526802
1776408891355947645,0.073,,,,1776408891355947645,1.0176218661
1776408891363639504,0.058,,,,1776408891363639504,1.018391052
1776408891371331363,0.046,,,,1776408891371331363,1.0191602379
1776408891379023222,0.046,,,,1776408891379023222,1.0199294238
1776408891386715081,0.044,,,,1776408891386715081,1.0206986097
1776408891394406940,0.049,,,,1776408891394406940,1.0214677956
1776408891402098799,0.061,,,,1776408891402098799,1.0222369815
1776408891409790658,0.061,,,,1776408891409790658,1.0230061674
1776408891417482517,0.127,,,,1776408891417482517,1.0237753533
1776408891425174376,0.456,,,,1776408891425174376,1.0245445392
1776408891432866235,1.079,,,,1776408891432866235,1.0253137251
1776408891440558094,1.268,,,,1776408891440558094,1.026082911
1776408891448249953,0.122,,,,1776408891448249953,1.0268520969
1776408891455941812,-1.408,,,,1776408891455941812,1.0276212828
1776408891463633671,-1.523,,,,1776408891463633671,1.0283904687
1776408891471325530,-0.714,,,,1776408891471325530,1.0291596546
1776408891479017389,-0.333,,,,1776408891479017389,1.0299288405
1776408891486709248,-0.117,,,,1776408891486709248,1.0306980264
1776408891494401107,0.193,,,,1776408891494401107,1.0314672123
1776408891502092966,0.233,,,,1776408891502092966,1.0322363982
1776408891509784825,0.174,,,,1776408891509784825,1.0330055841
1776408891517476684,0.245,,,,1776408891517476684,1.03377477
1776408891525168543,0.267,,,,1776408891525168543,1.0345439559
1776408891532860402,0.23,,,,1776408891532860402,1.0353131418
1776408891540552261,0.25,,,,1776408891540552261,1.0360823277
1776408891548244120,0.279,,,,1776408891548244120,1.0368515136
1776408891555935979,0.272,,,,1776408891555935979,1.0376206995
1776408891563627838,0.274,,,,1776408891563627838,1.0383898854
1776408891571319697,0.287,,,,1776408891571319697,1.0391590713
1776408891579011556,0.289,,,,1776408891579011556,1.0399282572
1776408891586703415,0.296,,,,1776408891586703415,1.0406974431
1776408891594395274,0.306,,,,1776408891594395274,1.041466629
1776408891602087133,0.316,,,,1776408891602087133,1.0422358149
1776408891609778992,0.331,,,,1776408891609778992,1.0430050008
1776408891617470851,0.338,,,,1776408891617470851,1.0437741867
1776408891625162710,0.343,,,,1776408891625162710,1.0445433726
1776408891632854569,0.353,,,,1776408891632854569,1.0453125585
1776408891640546428,0.365,,,,1776408891640546428,1.0460817444
1776408891648238287,0.368,,,,1776408891648238287,1.0468509303
1776408891655930146,0.363,,,,1776408891655930146,1.0476201162
1776408891663622005,0.35,,,,1776408891663622005,1.0483893021
1776408891671313864,0.333,,,,1776408891671313864,1.049158488
1776408891679005723,0.306,,,,1776408891679005723,1.0499276739
1776408891686697582,0.269,,,,1776408891686697582,1.0506968598
1776408891694389441,0.238,,,,1776408891694389441,1.0514660457
1776408891702081300,0.201,,,,1776408891702081300,1.0522352316
1776408891709773159,0.161,,,,1776408891709773159,1.0530044175
1776408891717465018,0.127,,,,1776408891717465018,1.0537736034
1776408891725156877,0.095,,,,1776408891725156877,1.0545427893
1776408891732848736,0.068,,,,1776408891732848736,1.0553119752
1776408891740540595,0.046,,,,1776408891740540595,1.0560811611
1776408891748232454,0.039,,,,1776408891748232454,1.056850347
1776408891755924313,0.029,,,,1776408891755924313,1.0576195329
1776408891763616172,0.014,,,,1776408891763616172,1.0583887188
1776408891771308031,0.007,,,,1776408891771308031,1.0591579047
1776408891778999890,0.009,,,,1776408891778999890,1.0599270906
1776408891786691749,0.009,,,,1776408891786691749,1.0606962765
1776408891794383608,0.007,,,,1776408891794383608,1.0614654624
1776408891802075467,0.002,,,,1776408891802075467,1.0622346483
1776408891809767326,0.009,,,,1776408891809767326,1.0630038342
1776408891817459185,0.017,,,,1776408891817459185,1.0637730201
1776408891825151044,0.017,,,,1776408891825151044,1.064542206
1776408891832842903,0.022,,,,1776408891832842903,1.0653113919
1776408891840534762,0.024,,,,1776408891840534762,1.0660805778
1776408891848226682,0.022,77.0,,,1776408891848226682,1.0668497698
1776408891855918541,0.022,,,,1776408891855918541,1.0676189557
1776408891863610400,0.026,,,,1776408891863610400,1.0683881416
1776408891871302259,0.026,,,,1776408891871302259,1.0691573275
1776408891878994118,0.024,,,,1776408891878994118,1.0699265134
1776408891886685977,0.024,,,,1776408891886685977,1.0706956993
1776408891894377836,0.024,,,,1776408891894377836,1.0714648852
1776408891902069695,0.022,,,,1776408891902069695,1.0722340711
1776408891909761554,0.017,,,,1776408891909761554,1.073003257
1776408891917453413,0.007,,,,1776408891917453413,1.0737724429
1776408891925145272,0.002,,,,1776408891925145272,1.0745416288
1776408891932837131,0.004,,,,1776408891932837131,1.0753108147
1776408891940528990,0.004,,,,1776408891940528990,1.0760800006
1776408891948220849,0.007,,,,1776408891948220849,1.0768491865
1776408891955912708,0.014,,,,1776408891955912708,1.0776183724
1776408891963604567,0.017,,,,1776408891963604567,1.0783875583
1776408891971296426,0.019,,,,1776408891971296426,1.0791567442
1776408891978988285,0.022,,,,1776408891978988285,1.0799259301
1776408891986680144,0.022,,,,1776408891986680144,1.080695116
1776408891994372003,0.024,,,,1776408891994372003,1.0814643019
1776408892002063862,0.029,,,,1776408892002063862,1.0822334878
1776408892009755721,0.031,,,,1776408892009755721,1.0830026737
1776408892017447580,0.026,,,,1776408892017447580,1.0837718596
1776408892025139439,0.026,,,,1776408892025139439,1.0845410455
1776408892032831298,0.031,,,,1776408892032831298,1.0853102314
1776408892040523157,0.039,,,,1776408892040523157,1.0860794173
1776408892048215016,0.049,,,,1776408892048215016,1.0868486032
1776408892055906875,0.051,,813.0,,1776408892055906875,1.0876177891
1776408892063598734,0.051,,,,1776408892063598734,1.088386975
1776408892071290593,0.056,,,,1776408892071290593,1.0891561609
1776408892078982452,0.053,,,,1776408892078982452,1.0899253468
1776408892086674311,0.049,,,,1776408892086674311,1.0906945327
1776408892094366170,0.058,,,,1776408892094366170,1.0914637186
1776408892102058029,0.071,,,,1776408892102058029,1.0922329045
1776408892109749888,0.08,,,,1776408892109749888,1.0930020904
1776408892117441747,0.093,,,,1776408892117441747,1.0937712763
1776408892125133606,0.1,,,,1776408892125133606,1.0945404622
1776408892132825465,0.1,,,,1776408892132825465,1.0953096481
1776408892140517324,0.093,,,,1776408892140517324,1.096078834
1776408892148209183,0.08,,,,1776408892148209183,1.0968480199
1776408892155901042,0.066,,,,1776408892155901042,1.0976172058
1776408892163592901,0.053,,,,1776408892163592901,1.0983863917
1776408892171284760,0.056,,,,1776408892171284760,1.0991555776
1776408892178976619,0.063,,,,1776408892178976619,1.0999247635
1776408892186668478,0.066,,,,1776408892186668478,1.1006939494
1776408892194360337,0.068,,,,1776408892194360337,1.1014631353
1776408892202052196,0.068,,,,1776408892202052196,1.1022323212
1776408892209744055,0.085,,,,1776408892209744055,1.1030015071
1776408892217435914,0.269,,,,1776408892217435914,1.103770693
1776408892225127773,0.8170000000000001,,,,1776408892225127773,1.1045398789
1776408892232819632,1.374,,,,1776408892232819632,1.1053090648
1776408892240511491,0.8240000000000001,,,,1776408892240511491,1.1060782507
1776408892248203350,-0.848,,,,1776408892248203350,1.1068474366
1776408892255895209,-1.685,,,,1776408892255895209,1.1076166225
1776408892263587068,-1.064,,,,1776408892263587068,1.1083858084
1776408892271278927,-0.476,,,,1776408892271278927,1.1091549943
1776408892278970786,-0.274,,,,1776408892278970786,1.1099241802
1776408892286662645,0.078,,,,1776408892286662645,1.1106933661
1776408892294354504,0.289,,,,1776408892294354504,1.111462552
1776408892302046363,0.206,,,,1776408892302046363,1.1122317379
1776408892309738222,0.203,,,,1776408892309738222,1.1130009238
1776408892317430081,0.287,,,,1776408892317430081,1.1137701097
1776408892325121940,0.277,,,,1776408892325121940,1.1145392956
1776408892332813799,0.257,,,,1776408892332813799,1.1153084815
1776408892340505658,0.284,,,,1776408892340505658,1.1160776674
1776408892348197517,0.294,,,,1776408892348197517,1.1168468533
1776408892355889376,0.284,,,,1776408892355889376,1.1176160392
1776408892363581235,0.294,,,,1776408892363581235,1.1183852251
1776408892371273094,0.311,,,,1776408892371273094,1.119154411
1776408892378964953,0.314,,,,1776408892378964953,1.1199235969
1776408892386656812,0.323,,,,1776408892386656812,1.1206927828
1776408892394348671,0.338,,,,1776408892394348671,1.1214619687
1776408892402040530,0.345,,,,1776408892402040530,1.1222311546
1776408892409732450,0.35,77.0,,,1776408892409732450,1.1230003466
1776408892417424309,0.363,,,,1776408892417424309,1.1237695325
1776408892425116168,0.382,,,,1776408892425116168,1.1245387184
1776408892432808027,0.392,,,,1776408892432808027,1.1253079043
1776408892440499886,0.397,,,,1776408892440499886,1.1260770902
1776408892448191745,0.387,,,,1776408892448191745,1.1268462761
1776408892455883604,0.372,,,,1776408892455883604,1.127615462
1776408892463575463,0.353,,,,1776408892463575463,1.1283846479
1776408892471267322,0.331,,,,1776408892471267322,1.1291538338
1776408892478959181,0.299,,,,1776408892478959181,1.1299230197
1776408892486651040,0.257,,,,1776408892486651040,1.1306922056
1776408892494342899,0.213,,,,1776408892494342899,1.1314613915
1776408892502034758,0.169,,,,1776408892502034758,1.1322305774
1776408892509726617,0.132,,,,1776408892509726617,1.1329997633
1776408892517418476,0.1,,,,1776408892517418476,1.1337689492
1776408892525110335,0.068,,,,1776408892525110335,1.1345381351
1776408892532802194,0.044,,,,1776408892532802194,1.135307321
1776408892540494053,0.029,,,,1776408892540494053,1.1360765069
1776408892548185912,0.019,,,,1776408892548185912,1.1368456928
1776408892555877771,0.012,,,,1776408892555877771,1.1376148787
1776408892563569630,0.009,,,,1776408892563569630,1.1383840646
1776408892571261489,0.009,,,,1776408892571261489,1.1391532505
1776408892578953348,0.004,,,,1776408892578953348,1.1399224364
1776408892586645207,0.002,,,,1776408892586645207,1.1406916223
1776408892594337066,0.009,,,,1776408892594337066,1.1414608082
1776408892602028925,0.017,,,,1776408892602028925,1.1422299941
1776408892609720784,0.022,,,,1776408892609720784,1.14299918
1776408892617412643,0.031,,,,1776408892617412643,1.1437683659
1776408892625104502,0.039,,,,1776408892625104502,1.1445375518
1776408892632796361,0.039,,,,1776408892632796361,1.1453067377
1776408892640488220,0.039,,,,1776408892640488220,1.1460759236
1776408892648180079,0.049,,,,1776408892648180079,1.1468451095
1776408892655871938,0.049,,,,1776408892655871938,1.1476142954
1776408892663563797,0.041,,,,1776408892663563797,1.1483834813
1776408892671255656,0.036,,,,1776408892671255656,1.1491526672
1776408892678947515,0.029,,,,1776408892678947515,1.1499218531
1776408892686639374,0.024,,,,1776408892686639374,1.150691039
1776408892694331233,0.026,,,,1776408892694331233,1.1514602249
1776408892702023092,0.024,,,,1776408892702023092,1.1522294108
1776408892709714951,0.022,,,,1776408892709714951,1.1529985967
1776408892717406810,0.024,,,,1776408892717406810,1.1537677826
1776408892725098669,0.024,,,,1776408892725098669,1.1545369685
1776408892732790528,0.022,,,,1776408892732790528,1.1553061544
1776408892740482387,0.024,,,,1776408892740482387,1.1560753403
1776408892748174246,0.024,,,,1776408892748174246,1.1568445262
1776408892755866105,0.022,,,,1776408892755866105,1.1576137121
1776408892763557964,0.024,,,,1776408892763557964,1.158382898
1776408892771249823,0.029,,,,1776408892771249823,1.1591520839
1776408892778941682,0.031,,,,1776408892778941682,1.1599212698
1776408892786633541,0.034,,,,1776408892786633541,1.1606904557
1776408892794325400,0.031,,,,1776408892794325400,1.1614596416
1776408892802017259,0.019,,,,1776408892802017259,1.1622288275
1776408892809709118,0.014,,755.0,,1776408892809709118,1.1629980134
1776408892817400977,0.017,,,,1776408892817400977,1.1637671993
1776408892825092836,0.014,,,,1776408892825092836,1.1645363852
1776408892832784695,0.017,,,,1776408892832784695,1.1653055711
1776408892840476554,0.026,,,,1776408892840476554,1.166074757
1776408892848168413,0.031,,,,1776408892848168413,1.1668439429
1776408892855860272,0.036,,,,1776408892855860272,1.1676131288
1776408892863552131,0.044,,,,1776408892863552131,1.1683823147
1776408892871243990,0.046,,,,1776408892871243990,1.1691515006
1776408892878935849,0.049,,,,1776408892878935849,1.1699206865
1776408892886627708,0.061,,,,1776408892886627708,1.1706898724
1776408892894319567,0.078,,,,1776408892894319567,1.1714590583
1776408892902011426,0.093,,,,1776408892902011426,1.1722282442
1776408892909703285,0.1,,,,1776408892909703285,1.1729974301
1776408892917395144,0.103,,,,1776408892917395144,1.173766616
1776408892925087003,0.098,,,,1776408892925087003,1.1745358019
1776408892932778862,0.083,,,,1776408892932778862,1.1753049878
1776408892940470721,0.066,,,,1776408892940470721,1.1760741737
1776408892948162580,0.053,,,,1776408892948162580,1.1768433596
1776408892955854439,0.049,,,,1776408892955854439,1.1776125455
1776408892963546298,0.053,,,,1776408892963546298,1.1783817314
1776408892971238218,0.058,,,,1776408892971238218,1.1791509234
1776408892978930077,0.066,,,,1776408892978930077,1.1799201093
1776408892986621936,0.071,,,,1776408892986621936,1.1806892952
1776408892994313795,0.068,,,,1776408892994313795,1.1814584811
1776408893002005654,0.164,,,,1776408893002005654,1.182227667
1776408893009697513,0.5710000000000001,,,,1776408893009697513,1.1829968529
1776408893017389372,1.239,,,,1776408893017389372,1.1837660388
1776408893025081231,1.273,,,,1776408893025081231,1.1845352247
1776408893032773090,-0.098,,,,1776408893032773090,1.1853044106
1776408893040464949,-1.56,,,,1776408893040464949,1.1860735965
1776408893048156808,-1.447,,,,1776408893048156808,1.1868427824
1776408893055848667,-0.633,,,,1776408893055848667,1.1876119683
1776408893063540526,-0.314,,,,1776408893063540526,1.1883811542
1776408893071232385,-0.058,,,,1776408893071232385,1.1891503401
1776408893078924244,0.245,,,,1776408893078924244,1.189919526
1776408893086616103,0.228,,,,1776408893086616103,1.1906887119
1776408893094307962,0.164,,,,1776408893094307962,1.1914578978
1776408893101999821,0.25,,,,1776408893101999821,1.1922270837
1776408893109691680,0.279,,,,1776408893109691680,1.1929962696
1776408893117383539,0.25,,,,1776408893117383539,1.1937654555
1776408893125075398,0.272,,,,1776408893125075398,1.1945346414
1776408893132767257,0.291,,,,1776408893132767257,1.1953038273
1776408893140459116,0.279,,,,1776408893140459116,1.1960730132
1776408893148150975,0.284,,,,1776408893148150975,1.1968421991
1776408893155842834,0.301,,,,1776408893155842834,1.197611385
1776408893163534693,0.304,,,,1776408893163534693,1.1983805709
1776408893171226552,0.311,,,,1776408893171226552,1.1991497568
1776408893178918411,0.328,,,,1776408893178918411,1.1999189427
1776408893186610270,0.341,,,,1776408893186610270,1.2006881286
1776408893194302129,0.348,,,,1776408893194302129,1.2014573145
1776408893201993988,0.36,,,,1776408893201993988,1.2022265004
1776408893209685847,0.372,,,,1776408893209685847,1.2029956863
1776408893217377706,0.382,,,,1776408893217377706,1.2037648722
1776408893225069565,0.39,,,,1776408893225069565,1.2045340581
1776408893232761424,0.387,,,,1776408893232761424,1.205303244
1776408893240453283,0.38,,,,1776408893240453283,1.2060724299
1776408893248145142,0.37,,,,1776408893248145142,1.2068416158
1776408893255837001,0.353,,,,1776408893255837001,1.2076108017
1776408893263528860,0.321,,,,1776408893263528860,1.2083799876
1776408893271220719,0.284,,,,1776408893271220719,1.2091491735
1776408893278912578,0.242,,,,1776408893278912578,1.2099183594
1776408893286604437,0.201,,,,1776408893286604437,1.2106875453
1776408893294296296,0.161,,,,1776408893294296296,1.2114567312
1776408893301988155,0.115,,,,1776408893301988155,1.2122259171
1776408893309680014,0.066,,,,1776408893309680014,1.212995103
1776408893317371873,0.034,,,,1776408893317371873,1.2137642889
1776408893325063732,0.014,,,,1776408893325063732,1.2145334748
1776408893332755591,-0.004,,,,1776408893332755591,1.2153026607
1776408893340447450,-0.019,,,,1776408893340447450,1.2160718466
1776408893348139309,-0.019,,,,1776408893348139309,1.2168410325
1776408893355831168,-0.014,,,,1776408893355831168,1.2176102184
1776408893363523027,-0.009,,,,1776408893363523027,1.2183794043
1776408893371214886,-0.007,,,,1776408893371214886,1.2191485902
1776408893378906745,-0.002,,,,1776408893378906745,1.2199177761
1776408893386598604,0.007,,,,1776408893386598604,1.220686962
1776408893394290463,0.017,,,,1776408893394290463,1.2214561479
1776408893401982322,0.019,,,,1776408893401982322,1.2222253338
1776408893409674181,0.024,,,,1776408893409674181,1.2229945197
1776408893417366040,0.029,,,,1776408893417366040,1.2237637056
1776408893425057899,0.029,,,,1776408893425057899,1.2245328915
1776408893432749758,0.029,,,,1776408893432749758,1.2253020774
1776408893440441617,0.029,,,,1776408893440441617,1.2260712633
1776408893448133476,0.029,,,,1776408893448133476,1.2268404492
1776408893455825335,0.029,,,,1776408893455825335,1.2276096351
1776408893463517194,0.031,,,,1776408893463517194,1.228378821
1776408893471209053,0.034,,,,1776408893471209053,1.2291480069
1776408893478900912,0.031,,,,1776408893478900912,1.2299171928
1776408893486592771,0.026,,,,1776408893486592771,1.2306863787
1776408893494284630,0.026,,,,1776408893494284630,1.2314555646
1776408893501976489,0.026,,,,1776408893501976489,1.2322247505
1776408893509668348,0.024,,,,1776408893509668348,1.2329939364
1776408893517360207,0.024,,,,1776408893517360207,1.2337631223
1776408893525052066,0.024,,,,1776408893525052066,1.2345323082
1776408893532743986,0.024,77.0,,,1776408893532743986,1.2353015002
1776408893540435776,0.029,,,,1776408893540435776,1.2360706792
1776408893548127566,0.029,,,,1776408893548127566,1.2368398582
1776408893555819356,0.024,,,,1776408893555819356,1.2376090372
1776408893563511146,0.019,,,,1776408893563511146,1.2383782162
1776408893571202936,0.019,,,,1776408893571202936,1.2391473952
1776408893578894726,0.017,,,,1776408893578894726,1.2399165742
1776408893586586516,0.017,,,,1776408893586586516,1.2406857532
1776408893594278306,0.026,,,,1776408893594278306,1.2414549322
1776408893601970096,0.029,,,,1776408893601970096,1.2422241112
1776408893609661886,0.026,,,,1776408893609661886,1.2429932902
1776408893617353676,0.031,,812.0,,1776408893617353676,1.2437624692
1776408893625045466,0.036,,,,1776408893625045466,1.2445316482
1776408893632737256,0.039,,,,1776408893632737256,1.2453008272
1776408893640429046,0.046,,,,1776408893640429046,1.2460700062
1776408893648120836,0.056,,,,1776408893648120836,1.2468391852
1776408893655812626,0.061,,,,1776408893655812626,1.2476083642
1776408893663504416,0.056,,,,1776408893663504416,1.2483775432
1776408893671196206,0.051,,,,1776408893671196206,1.2491467222
1776408893678887996,0.061,,,,1776408893678887996,1.2499159012
1776408893686579786,0.08,,,,1776408893686579786,1.2506850802
1776408893694271576,0.095,,,,1776408893694271576,1.2514542592
1776408893701963366,0.1,,,,1776408893701963366,1.2522234382
1776408893709655156,0.098,,,,1776408893709655156,1.2529926172
1776408893717346946,0.083,,,,1776408893717346946,1.2537617962
1776408893725038736,0.063,,,,1776408893725038736,1.2545309752
1776408893732730526,0.049,,,,1776408893732730526,1.2553001542
1776408893740422316,0.041,,,,1776408893740422316,1.2560693332
1776408893748114106,0.046,,,,1776408893748114106,1.2568385122
1776408893755805896,0.051,,,,1776408893755805896,1.2576076912
1776408893763497686,0.049,,,,1776408893763497686,1.2583768702
1776408893771189476,0.044,,,,1776408893771189476,1.2591460492
1776408893778881266,0.041,,,,1776408893778881266,1.2599152282
1776408893786573056,0.078,,,,1776408893786573056,1.2606844072
1776408893794264846,0.316,,,,1776408893794264846,1.2614535862
1776408893801956636,0.912,,,,1776408893801956636,1.2622227652
1776408893809648426,1.359,,,,1776408893809648426,1.2629919442
1776408893817340216,0.5740000000000001,,,,1776408893817340216,1.2637611232
1776408893825032006,-1.116,,,,1776408893825032006,1.2645303022
1776408893832723796,-1.737,,,,1776408893832723796,1.2652994812
1776408893840415586,-0.988,,,,1776408893840415586,1.2660686602
1776408893848107376,-0.419,,,,1776408893848107376,1.2668378392
1776408893855799166,-0.218,,,,1776408893855799166,1.2676070182
1776408893863490956,0.107,,,,1776408893863490956,1.2683761972
1776408893871182746,0.228,,,,1776408893871182746,1.2691453762
1776408893878874536,0.137,,,,1776408893878874536,1.2699145552
1776408893886566326,0.181,,,,1776408893886566326,1.2706837342
1776408893894258116,0.255,,,,1776408893894258116,1.2714529132
1776408893901949906,0.233,,,,1776408893901949906,1.2722220922
1776408893909641696,0.23,,,,1776408893909641696,1.2729912712
1776408893917333486,0.25,,,,1776408893917333486,1.2737604502
1776408893925025276,0.242,,,,1776408893925025276,1.2745296292
1776408893932717066,0.247,,,,1776408893932717066,1.2752988082
1776408893940408856,0.264,,,,1776408893940408856,1.2760679872
1776408893948100646,0.274,,,,1776408893948100646,1.2768371662
1776408893955792436,0.287,,,,1776408893955792436,1.2776063452
1776408893963484226,0.296,,,,1776408893963484226,1.2783755242
1776408893971176016,0.291,,,,1776408893971176016,1.2791447032
1776408893978867806,0.301,,,,1776408893978867806,1.2799138822
1776408893986559596,0.323,,,,1776408893986559596,1.2806830612
1776408893994251386,0.338,,,,1776408893994251386,1.2814522402
1776408894001943176,0.348,,,,1776408894001943176,1.2822214192
1776408894009634966,0.36,,,,1776408894009634966,1.2829905982
1776408894017326756,0.363,,,,1776408894017326756,1.2837597772
1776408894025018546,0.36,,,,1776408894025018546,1.2845289562
1776408894032710336,0.358,,,,1776408894032710336,1.2852981352
1776408894040402126,0.341,,,,1776408894040402126,1.2860673142
1776408894048093916,0.311,,,,1776408894048093916,1.2868364932
1776408894055785706,0.272,,,,1776408894055785706,1.2876056722
1776408894063477496,0.23,,,,1776408894063477496,1.2883748512
1776408894071169286,0.193,,,,1776408894071169286,1.2891440302
1776408894078861076,0.157,,,,1776408894078861076,1.2899132092
1776408894086552866,0.122,,,,1776408894086552866,1.2906823882
1776408894094244670,0.093,,,,1776408894094244670,1.2914515686
1776408894101936460,0.063,,,,1776408894101936460,1.2922207476
1776408894109628250,0.034,,,,1776408894109628250,1.2929899266
1776408894117320040,0.017,,,,1776408894117320040,1.2937591056
1776408894125011830,0.009,,,,1776408894125011830,1.2945282846
1776408894132703620,0.007,,,,1776408894132703620,1.2952974636
1776408894140395410,0.004,,,,1776408894140395410,1.2960666426
1776408894148087200,0.0,,,,1776408894148087200,1.2968358216
1776408894155778990,-0.004,,,,1776408894155778990,1.2976050006
1776408894163470780,-0.007,,,,1776408894163470780,1.2983741796
1776408894171162570,0.0,,,,1776408894171162570,1.2991433586
1776408894178854360,0.014,,,,1776408894178854360,1.2999125376
1776408894186546150,0.022,,,,1776408894186546150,1.3006817166
1776408894194237940,0.029,,,,1776408894194237940,1.3014508956
1776408894201929730,0.034,,,,1776408894201929730,1.3022200746
1776408894209621520,0.034,,,,1776408894209621520,1.3029892536
1776408894217313310,0.039,,,,1776408894217313310,1.3037584326
1776408894225005100,0.039,,,,1776408894225005100,1.3045276116
1776408894232696890,0.039,,,,1776408894232696890,1.3052967906
1776408894240388680,0.044,,,,1776408894240388680,1.3060659696
1776408894248080470,0.044,,,,1776408894248080470,1.3068351486
1776408894255772260,0.034,,,,1776408894255772260,1.3076043276
1776408894263464050,0.029,,,,1776408894263464050,1.3083735066
1776408894271155840,0.029,,,,1776408894271155840,1.3091426856
1776408894278847630,0.029,,,,1776408894278847630,1.3099118646
1776408894286539420,0.026,,,,1776408894286539420,1.3106810436
1776408894294231210,0.026,,,,1776408894294231210,1.3114502226
1776408894301923000,0.017,,,,1776408894301923000,1.3122194016
1776408894309614790,0.009,,,,1776408894309614790,1.3129885806
1776408894317306580,0.002,,,,1776408894317306580,1.3137577596
1776408894324998370,-0.007,,,,1776408894324998370,1.3145269386
1776408894332690160,-0.007,,,,1776408894332690160,1.3152961176
1776408894340381950,0.0,,,,1776408894340381950,1.3160652966
1776408894348073740,0.004,,,,1776408894348073740,1.3168344756
1776408894355765530,0.007,,,,1776408894355765530,1.3176036546
1776408894363457320,0.009,,,,1776408894363457320,1.3183728336
1776408894371149110,0.014,,,,1776408894371149110,1.3191420126
1776408894378840900,0.019,,,,1776408894378840900,1.3199111916
1776408894386532690,0.019,,,,1776408894386532690,1.3206803706
1776408894394224480,0.024,,,,1776408894394224480,1.3214495496
1776408894401916270,0.029,,,,1776408894401916270,1.3222187286
1776408894409608060,0.029,,,,1776408894409608060,1.3229879076
1776408894417299850,0.034,,,,1776408894417299850,1.3237570866
1776408894424991640,0.041,,,,1776408894424991640,1.3245262656
1776408894432683430,0.044,,,,1776408894432683430,1.3252954446
1776408894440375220,0.046,,,,1776408894440375220,1.3260646236
1776408894448067010,0.056,,827.0,,1776408894448067010,1.3268338026
1776408894455758800,0.063,,,,1776408894455758800,1.3276029816
1776408894463450590,0.066,,,,1776408894463450590,1.3283721606
1776408894471142380,0.066,,,,1776408894471142380,1.3291413396
1776408894478834170,0.068,,,,1776408894478834170,1.3299105186
1776408894486525960,0.078,,,,1776408894486525960,1.3306796976
1776408894494217750,0.1,,,,1776408894494217750,1.3314488766
1776408894501909540,0.115,,,,1776408894501909540,1.3322180556
1776408894509601330,0.122,,,,1776408894509601330,1.3329872346
1776408894517293120,0.12,,,,1776408894517293120,1.3337564136
1776408894524984910,0.105,,,,1776408894524984910,1.3345255926
1776408894532676700,0.09,,,,1776408894532676700,1.3352947716
1776408894540368490,0.078,,,,1776408894540368490,1.3360639506
1776408894548060280,0.061,,,,1776408894548060280,1.3368331296
1776408894555752070,0.056,,,,1776408894555752070,1.3376023086
1776408894563443860,0.068,,,,1776408894563443860,1.3383714876
1776408894571135650,0.073,,,,1776408894571135650,1.3391406666
1776408894578827440,0.071,,,,1776408894578827440,1.3399098456
1776408894586519230,0.073,,,,1776408894586519230,1.3406790246
1776408894594211020,0.093,,,,1776408894594211020,1.3414482036
1776408894601902810,0.272,,,,1776408894601902810,1.3422173826
1776408894609594600,0.809,,,,1776408894609594600,1.3429865616
1776408894617286390,1.347,,,,1776408894617286390,1.3437557406
1776408894624978180,0.8260000000000001,,,,1776408894624978180,1.3445249196
1776408894632669970,-0.792,,,,1776408894632669970,1.3452940986
1776408894640361760,-1.656,,,,1776408894640361760,1.3460632776
1776408894648053550,-1.047,,,,1776408894648053550,1.3468324566
1776408894655745352,-0.412,76.0,,,1776408894655745352,1.3476016368
1776408894663436933,-0.206,,,,1776408894663436933,1.3483707949
1776408894671128514,0.103,,,,1776408894671128514,1.349139953
1776408894678820095,0.282,,,,1776408894678820095,1.3499091111
1776408894686511676,0.211,,,,1776408894686511676,1.3506782692
1776408894694203257,0.228,,,,1776408894694203257,1.3514474273
1776408894701894838,0.294,,,,1776408894701894838,1.3522165854
1776408894709586419,0.274,,,,1776408894709586419,1.3529857435
1776408894717278000,0.269,,,,1776408894717278000,1.3537549016
1776408894724969581,0.299,,,,1776408894724969581,1.3545240597
1776408894732661162,0.301,,,,1776408894732661162,1.3552932178
1776408894740352743,0.294,,,,1776408894740352743,1.3560623759
1776408894748044324,0.296,,,,1776408894748044324,1.356831534
1776408894755735905,0.304,,,,1776408894755735905,1.3576006921
1776408894763427486,0.314,,,,1776408894763427486,1.3583698502
1776408894771119067,0.323,,,,1776408894771119067,1.3591390083
1776408894778810648,0.333,,,,1776408894778810648,1.3599081664
1776408894786502229,0.341,,,,1776408894786502229,1.3606773245
1776408894794193810,0.348,,,,1776408894794193810,1.3614464826
1776408894801885391,0.35,,,,1776408894801885391,1.3622156407
1776408894809576972,0.36,,,,1776408894809576972,1.3629847988
1776408894817268553,0.368,,,,1776408894817268553,1.3637539569
1776408894824960134,0.363,,,,1776408894824960134,1.364523115
1776408894832651715,0.355,,,,1776408894832651715,1.3652922731
1776408894840343296,0.35,,,,1776408894840343296,1.3660614312
1776408894848034877,0.331,,,,1776408894848034877,1.3668305893
1776408894855726458,0.299,,,,1776408894855726458,1.3675997474
1776408894863418039,0.269,,,,1776408894863418039,1.3683689055
1776408894871109620,0.238,,,,1776408894871109620,1.3691380636
1776408894878801201,0.196,,,,1776408894878801201,1.3699072217
1776408894886492782,0.157,,,,1776408894886492782,1.3706763798
1776408894894184363,0.12,,,,1776408894894184363,1.3714455379
1776408894901875944,0.088,,,,1776408894901875944,1.372214696
1776408894909567525,0.068,,,,1776408894909567525,1.3729838541
1776408894917259106,0.049,,,,1776408894917259106,1.3737530122
1776408894924950687,0.029,,,,1776408894924950687,1.3745221703
1776408894932642268,0.014,,,,1776408894932642268,1.3752913284
1776408894940333849,0.004,,,,1776408894940333849,1.3760604865
1776408894948025430,0.007,,,,1776408894948025430,1.3768296446
1776408894955717011,0.009,,,,1776408894955717011,1.3775988027
1776408894963408592,0.009,,,,1776408894963408592,1.3783679608
1776408894971100173,0.012,,,,1776408894971100173,1.3791371189
1776408894978791754,0.019,,,,1776408894978791754,1.379906277
1776408894986483335,0.024,,,,1776408894986483335,1.3806754351
1776408894994174916,0.026,,,,1776408894994174916,1.3814445932
1776408895001866497,0.031,,,,1776408895001866497,1.3822137513
1776408895009558078,0.039,,,,1776408895009558078,1.3829829094
1776408895017249659,0.044,,,,1776408895017249659,1.3837520675
1776408895024941240,0.049,,,,1776408895024941240,1.3845212256
1776408895032632821,0.049,,,,1776408895032632821,1.3852903837
1776408895040324402,0.046,,,,1776408895040324402,1.3860595418
1776408895048015983,0.044,,,,1776408895048015983,1.3868286999
1776408895055707564,0.041,,,,1776408895055707564,1.387597858
1776408895063399145,0.036,,,,1776408895063399145,1.3883670161
1776408895071090726,0.029,,,,1776408895071090726,1.3891361742
1776408895078782307,0.022,,,,1776408895078782307,1.3899053323
1776408895086473888,0.014,,,,1776408895086473888,1.3906744904
1776408895094165469,0.014,,,,1776408895094165469,1.3914436485
1776408895101857050,0.022,,,,1776408895101857050,1.3922128066
1776408895109548631,0.019,,,,1776408895109548631,1.3929819647
1776408895117240212,0.014,,,,1776408895117240212,1.3937511228
1776408895124931793,0.014,,,,1776408895124931793,1.3945202809
1776408895132623374,0.019,,,,1776408895132623374,1.395289439
1776408895140314955,0.017,,,,1776408895140314955,1.3960585971
1776408895148006536,0.017,,,,1776408895148006536,1.3968277552
1776408895155698117,0.024,,,,1776408895155698117,1.3975969133
1776408895163389698,0.024,,,,1776408895163389698,1.3983660714
1776408895171081279,0.022,,,,1776408895171081279,1.3991352295
1776408895178772860,0.024,,,,1776408895178772860,1.3999043876
1776408895186464441,0.024,,,,1776408895186464441,1.4006735457
1776408895194156022,0.029,,,,1776408895194156022,1.4014427038
1776408895201847603,0.034,,,,1776408895201847603,1.4022118619
1776408895209539184,0.036,,,,1776408895209539184,1.40298102
1776408895217230774,0.036,,,,1776408895217230774,1.403750179
1776408895224922633,0.036,,,,1776408895224922633,1.4045193649
1776408895232614492,0.039,,,,1776408895232614492,1.4052885508
1776408895240306351,0.044,,796.0,,1776408895240306351,1.4060577367
1776408895247998210,0.051,,,,1776408895247998210,1.4068269226
1776408895255690069,0.056,,,,1776408895255690069,1.4075961085
1776408895263381928,0.058,,,,1776408895263381928,1.4083652944
1776408895271073787,0.071,,,,1776408895271073787,1.4091344803
1776408895278765646,0.088,,,,1776408895278765646,1.4099036662
1776408895286457505,0.093,,,,1776408895286457505,1.4106728521
1776408895294149364,0.103,,,,1776408895294149364,1.411442038
1776408895301841223,0.1,,,,1776408895301841223,1.4122112239
1776408895309533082,0.08,,,,1776408895309533082,1.4129804098
1776408895317224941,0.063,,,,1776408895317224941,1.4137495957
1776408895324916800,0.051,,,,1776408895324916800,1.4145187816
1776408895332608659,0.039,,,,1776408895332608659,1.4152879675
1776408895340300518,0.029,,,,1776408895340300518,1.4160571534
1776408895347992377,0.031,,,,1776408895347992377,1.4168263393
1776408895355684236,0.046,,,,1776408895355684236,1.4175955252
1776408895363376095,0.046,,,,1776408895363376095,1.4183647111
1776408895371067954,0.044,,,,1776408895371067954,1.419133897
1776408895378759813,0.117,,,,1776408895378759813,1.4199030829
1776408895386451672,0.468,,,,1776408895386451672,1.4206722688
1776408895394143531,1.121,,,,1776408895394143531,1.4214414547
1776408895401835390,1.251,,,,1776408895401835390,1.4222106406
1776408895409527249,-0.026,,,,1776408895409527249,1.4229798265
1776408895417219108,-1.513,,,,1776408895417219108,1.4237490124
1776408895424910967,-1.481,,,,1776408895424910967,1.4245181983
1776408895432602826,-0.718,,,,1776408895432602826,1.4252873842
1776408895440294685,-0.404,,,,1776408895440294685,1.4260565701
1776408895447986544,-0.142,,,,1776408895447986544,1.426825756
1776408895455678403,0.206,,,,1776408895455678403,1.4275949419
1776408895463370262,0.25,,,,1776408895463370262,1.4283641278
1776408895471062121,0.188,,,,1776408895471062121,1.4291333137
1776408895478753980,0.252,,,,1776408895478753980,1.4299024996
1776408895486445839,0.289,,,,1776408895486445839,1.4306716855
1776408895494137698,0.267,,,,1776408895494137698,1.4314408714
1776408895501829557,0.279,,,,1776408895501829557,1.4322100573
1776408895509521416,0.301,,,,1776408895509521416,1.4329792432
1776408895517213275,0.296,,,,1776408895517213275,1.4337484291
1776408895524905134,0.299,,,,1776408895524905134,1.434517615
1776408895532596993,0.306,,,,1776408895532596993,1.4352868009
1776408895540288852,0.309,,,,1776408895540288852,1.4360559868
1776408895547980711,0.318,,,,1776408895547980711,1.4368251727
1776408895555672570,0.333,,,,1776408895555672570,1.4375943586
1776408895563364429,0.343,,,,1776408895563364429,1.4383635445
1776408895571056288,0.35,,,,1776408895571056288,1.4391327304
1776408895578748147,0.363,,,,1776408895578748147,1.4399019163
1776408895586440006,0.372,,,,1776408895586440006,1.4406711022
1776408895594131865,0.385,,,,1776408895594131865,1.4414402881
1776408895601823724,0.397,,,,1776408895601823724,1.442209474
1776408895609515583,0.399,,,,1776408895609515583,1.4429786599
1776408895617207442,0.392,,,,1776408895617207442,1.4437478458
1776408895624899301,0.377,,,,1776408895624899301,1.4445170317
1776408895632591160,0.35,,,,1776408895632591160,1.4452862176
1776408895640283019,0.318,,,,1776408895640283019,1.4460554035
1776408895647974878,0.284,,,,1776408895647974878,1.4468245894
1776408895655666737,0.245,,,,1776408895655666737,1.4475937753
1776408895663358596,0.203,,,,1776408895663358596,1.4483629612
1776408895671050455,0.157,,,,1776408895671050455,1.4491321471
1776408895678742314,0.115,,,,1776408895678742314,1.449901333
1776408895686434173,0.083,,,,1776408895686434173,1.4506705189
1776408895694126032,0.063,,,,1776408895694126032,1.4514397048
1776408895701817891,0.046,,,,1776408895701817891,1.4522088907
1776408895709509750,0.031,,,,1776408895709509750,1.4529780766
1776408895717201609,0.019,,,,1776408895717201609,1.4537472625
1776408895724893468,0.012,,,,1776408895724893468,1.4545164484
1776408895732585327,0.017,,,,1776408895732585327,1.4552856343
1776408895740277186,0.026,,,,1776408895740277186,1.4560548202
1776408895747969045,0.031,,,,1776408895747969045,1.4568240061
1776408895755660904,0.036,,,,1776408895755660904,1.457593192
1776408895763352763,0.039,,,,1776408895763352763,1.4583623779
1776408895771044622,0.036,,,,1776408895771044622,1.4591315638
1776408895778736542,0.031,76.0,,,1776408895778736542,1.4599007558
1776408895786428401,0.039,,,,1776408895786428401,1.4606699417
1776408895794120260,0.051,,,,1776408895794120260,1.4614391276
1776408895801812119,0.051,,,,1776408895801812119,1.4622083135
1776408895809503978,0.041,,,,1776408895809503978,1.4629774994
1776408895817195837,0.036,,,,1776408895817195837,1.4637466853
1776408895824887696,0.036,,,,1776408895824887696,1.4645158712
1776408895832579555,0.036,,,,1776408895832579555,1.4652850571
1776408895840271414,0.022,,,,1776408895840271414,1.466054243
1776408895847963273,0.004,,,,1776408895847963273,1.4668234289
1776408895855655132,0.002,,,,1776408895855655132,1.4675926148
1776408895863346991,0.002,,,,1776408895863346991,1.4683618007
1776408895871038850,-0.004,,,,1776408895871038850,1.4691309866
1776408895878730709,-0.007,,,,1776408895878730709,1.4699001725
1776408895886422568,-0.002,,,,1776408895886422568,1.4706693584
1776408895894114427,0.0,,,,1776408895894114427,1.4714385443
1776408895901806286,0.0,,,,1776408895901806286,1.4722077302
1776408895909498145,-0.002,,,,1776408895909498145,1.4729769161
1776408895917190004,-0.002,,,,1776408895917190004,1.473746102
1776408895924881863,0.0,,,,1776408895924881863,1.4745152879
1776408895932573722,0.007,,,,1776408895932573722,1.4752844738
1776408895940265581,0.012,,,,1776408895940265581,1.4760536597
1776408895947957440,0.014,,,,1776408895947957440,1.4768228456
1776408895955649299,0.017,,,,1776408895955649299,1.4775920315
1776408895963341158,0.014,,,,1776408895963341158,1.4783612174
1776408895971033017,0.019,,,,1776408895971033017,1.4791304033
1776408895978724876,0.026,,,,1776408895978724876,1.4798995892
1776408895986416735,0.031,,,,1776408895986416735,1.4806687751
1776408895994108594,0.031,,,,1776408895994108594,1.481437961
1776408896001800453,0.039,,,,1776408896001800453,1.4822071469
1776408896009492312,0.046,,,,1776408896009492312,1.4829763328
1776408896017184171,0.041,,,,1776408896017184171,1.4837455187
1776408896024876030,0.031,,,,1776408896024876030,1.4845147046
1776408896032567889,0.044,,788.0,,1776408896032567889,1.4852838905
1776408896040259748,0.068,,,,1776408896040259748,1.4860530764
1776408896047951607,0.08,,,,1776408896047951607,1.4868222623
1776408896055643466,0.09,,,,1776408896055643466,1.4875914482
